# W0 [GeV]	Sigma_LHeC [pb]	Sigma_muLHC [pb]
1.61000000e+02	3.71912868e-02	1.88062739e-01
1.61580467e+02	3.71507190e-02	1.87952906e-01
1.62163028e+02	3.71100049e-02	1.87842676e-01
1.62747688e+02	3.70691440e-02	1.87732049e-01
1.63334457e+02	3.69860735e-02	1.87484833e-01
1.63923341e+02	3.68879304e-02	1.87188893e-01
1.64514348e+02	3.67894335e-02	1.86891886e-01
1.65107486e+02	3.66905815e-02	1.86593808e-01
1.65702763e+02	3.65783616e-02	1.86294655e-01
1.66300186e+02	3.64528723e-02	1.85994424e-01
1.66899762e+02	3.63269307e-02	1.85693111e-01
1.67501501e+02	3.62005350e-02	1.85390711e-01
1.68105409e+02	3.60692553e-02	1.85061697e-01
1.68711494e+02	3.59252772e-02	1.84661036e-01
1.69319764e+02	3.57807800e-02	1.84258930e-01
1.69930228e+02	3.56357618e-02	1.83855375e-01
1.70542892e+02	3.54898903e-02	1.83449299e-01
1.71157765e+02	3.53324677e-02	1.83006230e-01
1.71774855e+02	3.51744776e-02	1.82561564e-01
1.72394170e+02	3.50159179e-02	1.82115295e-01
1.73015718e+02	3.48567865e-02	1.81667417e-01
1.73639507e+02	3.46908947e-02	1.81196190e-01
1.74265545e+02	3.45227768e-02	1.80717544e-01
1.74893840e+02	3.43540528e-02	1.80237172e-01
1.75524400e+02	3.41847205e-02	1.79755069e-01
1.76157233e+02	3.40118848e-02	1.79259812e-01
1.76792349e+02	3.38361013e-02	1.78753597e-01
1.77429754e+02	3.36596841e-02	1.78245556e-01
1.78069457e+02	3.34826308e-02	1.77735683e-01
1.78711466e+02	3.33039162e-02	1.77219126e-01
1.79355790e+02	3.31223570e-02	1.76690285e-01
1.80002437e+02	3.29401433e-02	1.76159536e-01
1.80651416e+02	3.27572726e-02	1.75626875e-01
1.81302735e+02	3.25736116e-02	1.75091386e-01
1.81956401e+02	3.23877941e-02	1.74543617e-01
1.82612425e+02	3.22013067e-02	1.73993872e-01
1.83270813e+02	3.20141469e-02	1.73442146e-01
1.83931576e+02	3.18263123e-02	1.72888431e-01
1.84594720e+02	3.16399502e-02	1.72326134e-01
1.85260256e+02	3.14533153e-02	1.71760588e-01
1.85928191e+02	3.12660076e-02	1.71193002e-01
1.86598534e+02	3.10780245e-02	1.70623370e-01
1.87271294e+02	3.08893637e-02	1.70048776e-01
1.87946480e+02	3.07000227e-02	1.69470220e-01
1.88624100e+02	3.05099990e-02	1.68889579e-01
1.89304163e+02	3.03192903e-02	1.68306844e-01
1.89986678e+02	3.01278939e-02	1.67721278e-01
1.90671654e+02	2.99358075e-02	1.67132353e-01
1.91359099e+02	2.97430285e-02	1.66541304e-01
1.92049023e+02	2.95495545e-02	1.65948125e-01
1.92741434e+02	2.93553830e-02	1.65352806e-01
1.93436342e+02	2.91605114e-02	1.64755342e-01
1.94133755e+02	2.89649372e-02	1.64155723e-01
1.94833682e+02	2.87686579e-02	1.63553943e-01
1.95536133e+02	2.85716709e-02	1.62949993e-01
1.96241117e+02	2.83782916e-02	1.62344819e-01
1.96948642e+02	2.81847216e-02	1.61737574e-01
1.97658718e+02	2.79904536e-02	1.61128141e-01
1.98371355e+02	2.77954853e-02	1.60516510e-01
1.99086560e+02	2.76021578e-02	1.59904726e-01
1.99804345e+02	2.74093525e-02	1.59291805e-01
2.00524717e+02	2.72158521e-02	1.58676673e-01
2.01247686e+02	2.70216540e-02	1.58059324e-01
2.01973262e+02	2.68284201e-02	1.57441673e-01
2.02701454e+02	2.66367818e-02	1.56824447e-01
2.03432272e+02	2.64444526e-02	1.56204995e-01
2.04165724e+02	2.62514299e-02	1.55583310e-01
2.04901821e+02	2.60585119e-02	1.54960469e-01
2.05640571e+02	2.58684555e-02	1.54340204e-01
2.06381985e+02	2.56777139e-02	1.53717703e-01
2.07126072e+02	2.54862846e-02	1.53092957e-01
2.07872842e+02	2.52941652e-02	1.52465959e-01
2.08622304e+02	2.51058165e-02	1.51843208e-01
2.09374469e+02	2.49170396e-02	1.51218579e-01
2.10129345e+02	2.47275821e-02	1.50591697e-01
2.10886943e+02	2.45374416e-02	1.49962555e-01
2.11647272e+02	2.43501078e-02	1.49339952e-01
2.12410342e+02	2.41635289e-02	1.48718712e-01
2.13176164e+02	2.39762773e-02	1.48095232e-01
2.13944747e+02	2.37883506e-02	1.47469505e-01
2.14716101e+02	2.36021950e-02	1.46841521e-01
2.15490235e+02	2.34181055e-02	1.46211273e-01
2.16267161e+02	2.32333524e-02	1.45578753e-01
2.17046888e+02	2.30479331e-02	1.44943953e-01
2.17829427e+02	2.28631151e-02	1.44310092e-01
2.18614786e+02	2.26817578e-02	1.43684439e-01
2.19402977e+02	2.24997466e-02	1.43056530e-01
2.20194010e+02	2.23170792e-02	1.42426357e-01
2.20987895e+02	2.21337533e-02	1.41793912e-01
2.21784642e+02	2.19581315e-02	1.41169309e-01
2.22584262e+02	2.17818892e-02	1.40542469e-01
2.23386764e+02	2.16050114e-02	1.39913370e-01
2.24192160e+02	2.14274960e-02	1.39282002e-01
2.25000460e+02	2.12493405e-02	1.38656493e-01
2.25811674e+02	2.10705428e-02	1.38031283e-01
2.26625813e+02	2.08911004e-02	1.37403820e-01
2.27442887e+02	2.07110110e-02	1.36774094e-01
2.28262906e+02	2.05348318e-02	1.36148085e-01
2.29085883e+02	2.03621616e-02	1.35525262e-01
2.29911826e+02	2.01888689e-02	1.34900194e-01
2.30740748e+02	2.00149514e-02	1.34272872e-01
2.31572658e+02	1.98420907e-02	1.33646733e-01
2.32407567e+02	1.96727931e-02	1.33026901e-01
2.33245486e+02	1.95028850e-02	1.32404835e-01
2.34086427e+02	1.93323644e-02	1.31780526e-01
2.34930399e+02	1.91615253e-02	1.31154583e-01
2.35777414e+02	1.89957079e-02	1.30538129e-01
2.36627483e+02	1.88292925e-02	1.29919453e-01
2.37480617e+02	1.86622772e-02	1.29298547e-01
2.38336827e+02	1.84946598e-02	1.28675401e-01
2.39196124e+02	1.83336789e-02	1.28060447e-01
2.40058519e+02	1.81737864e-02	1.27445681e-01
2.40924023e+02	1.80133175e-02	1.26828698e-01
2.41792647e+02	1.78522700e-02	1.26209491e-01
2.42664403e+02	1.76906418e-02	1.25595607e-01
2.43539303e+02	1.75284309e-02	1.24985085e-01
2.44417356e+02	1.73656352e-02	1.24372360e-01
2.45298576e+02	1.72022525e-02	1.23757427e-01
2.46182972e+02	1.70413563e-02	1.23147071e-01
2.47070557e+02	1.68858936e-02	1.22547796e-01
2.47961343e+02	1.67298705e-02	1.21946361e-01
2.48855340e+02	1.65732848e-02	1.21342758e-01
2.49752560e+02	1.64167475e-02	1.20736978e-01
2.50653014e+02	1.62650717e-02	1.20129014e-01
2.51556716e+02	1.61128491e-02	1.19518859e-01
2.52463675e+02	1.59600777e-02	1.18906503e-01
2.53373905e+02	1.58067554e-02	1.18291940e-01
2.54287416e+02	1.56580732e-02	1.17699140e-01
2.55204221e+02	1.55096696e-02	1.17107965e-01
2.56124331e+02	1.53607310e-02	1.16514659e-01
2.57047759e+02	1.52112553e-02	1.15919214e-01
2.57974516e+02	1.50649948e-02	1.15321621e-01
2.58904614e+02	1.49204397e-02	1.14721874e-01
2.59838065e+02	1.47753634e-02	1.14119965e-01
2.60774882e+02	1.46297640e-02	1.13515886e-01
2.61715077e+02	1.44870680e-02	1.12920807e-01
2.62658661e+02	1.43492199e-02	1.12341066e-01
2.63605648e+02	1.42108748e-02	1.11759236e-01
2.64556048e+02	1.40720309e-02	1.11175307e-01
2.65509875e+02	1.39326865e-02	1.10589274e-01
2.66467142e+02	1.37928396e-02	1.10001127e-01
2.67427859e+02	1.36524885e-02	1.09410860e-01
2.68392040e+02	1.35116315e-02	1.08818465e-01
2.69359698e+02	1.33702665e-02	1.08223934e-01
2.70330844e+02	1.32364947e-02	1.07647572e-01
2.71305491e+02	1.31029826e-02	1.07070992e-01
2.72283653e+02	1.29689891e-02	1.06492333e-01
2.73265341e+02	1.28345126e-02	1.05911588e-01
2.74250569e+02	1.27034858e-02	1.05338831e-01
2.75239348e+02	1.25738491e-02	1.04768781e-01
2.76231693e+02	1.24437450e-02	1.04196676e-01
2.77227615e+02	1.23131718e-02	1.03622508e-01
2.78227129e+02	1.21846680e-02	1.03052829e-01
2.79230245e+02	1.20589136e-02	1.02489391e-01
2.80236979e+02	1.19327057e-02	1.01923922e-01
2.81247342e+02	1.18060428e-02	1.01356414e-01
2.82261347e+02	1.16800829e-02	1.00789918e-01
2.83279009e+02	1.15581776e-02	1.00233264e-01
2.84300340e+02	1.14358327e-02	9.96746042e-02
2.85325353e+02	1.13130468e-02	9.91139298e-02
2.86354061e+02	1.11898181e-02	9.85512340e-02
2.87386479e+02	1.10740832e-02	9.80011335e-02
2.88422619e+02	1.09581952e-02	9.74495363e-02
2.89462494e+02	1.08418894e-02	9.68959505e-02
2.90506119e+02	1.07251643e-02	9.63403687e-02
2.91553506e+02	1.06080183e-02	9.57937826e-02
2.92604669e+02	1.04904500e-02	9.52492864e-02
2.93659623e+02	1.03724578e-02	9.47028272e-02
2.94718380e+02	1.02540402e-02	9.41543977e-02
2.95780954e+02	1.01392429e-02	9.36113847e-02
2.96847359e+02	1.00281915e-02	9.30740133e-02
2.97917609e+02	9.91673971e-03	9.25347044e-02
2.98991717e+02	9.80488612e-03	9.19934511e-02
3.00069698e+02	9.69398958e-03	9.14541556e-02
3.01151566e+02	9.58664295e-03	9.09242661e-02
3.02237334e+02	9.47890929e-03	9.03924662e-02
3.03327017e+02	9.37078721e-03	8.98587489e-02
3.04420629e+02	9.26237626e-03	8.93234039e-02
3.05518183e+02	9.15866835e-03	8.88010926e-02
3.06619695e+02	9.05458653e-03	8.82768981e-02
3.07725178e+02	8.95012945e-03	8.77508137e-02
3.08834646e+02	8.84529577e-03	8.72228326e-02
3.09948115e+02	8.74407130e-03	8.67046696e-02
3.11065598e+02	8.64359339e-03	8.61879060e-02
3.12187110e+02	8.54275322e-03	8.56692793e-02
3.13312666e+02	8.44154948e-03	8.51487827e-02
3.14442280e+02	8.34270688e-03	8.46345924e-02
3.15575966e+02	8.24578593e-03	8.41253862e-02
3.16713740e+02	8.14851555e-03	8.36143442e-02
3.17855616e+02	8.05089447e-03	8.31014597e-02
3.19001609e+02	7.95442276e-03	8.25913683e-02
3.20151733e+02	7.86097962e-03	8.20898780e-02
3.21306004e+02	7.76719959e-03	8.15865795e-02
3.22464437e+02	7.67308144e-03	8.10814666e-02
3.23627046e+02	7.57896191e-03	8.05755958e-02
3.24793848e+02	7.48892939e-03	8.00818290e-02
3.25964855e+02	7.39857227e-03	7.95862819e-02
3.27140085e+02	7.30788937e-03	7.90889482e-02
3.28319552e+02	7.21687953e-03	7.85898214e-02
3.29503271e+02	7.12944846e-03	7.81073877e-02
3.30691258e+02	7.04248142e-03	7.76269031e-02
3.31883529e+02	6.95520083e-03	7.71446862e-02
3.33080098e+02	6.86760556e-03	7.66607307e-02
3.34280981e+02	6.78242467e-03	7.61750304e-02
3.35486193e+02	6.69878406e-03	7.56875789e-02
3.36695751e+02	6.61484189e-03	7.51983699e-02
3.37909670e+02	6.53059708e-03	7.47073972e-02
3.39127965e+02	6.44764470e-03	7.42226604e-02
3.40350653e+02	6.36723930e-03	7.37504510e-02
3.41577749e+02	6.28654401e-03	7.32765391e-02
3.42809270e+02	6.20555778e-03	7.28009186e-02
3.44045230e+02	6.12481224e-03	7.23253758e-02
3.45285647e+02	6.04759284e-03	7.18609646e-02
3.46530535e+02	5.97009504e-03	7.13948789e-02
3.47779912e+02	5.89231783e-03	7.09271129e-02
3.49033794e+02	5.81426020e-03	7.04576603e-02
3.50292196e+02	5.73967059e-03	6.99994862e-02
3.51555135e+02	5.66529757e-03	6.95413398e-02
3.52822628e+02	5.59065640e-03	6.90815416e-02
3.54094690e+02	5.51574611e-03	6.86200856e-02
3.55371339e+02	5.44448095e-03	6.81663853e-02
3.56652591e+02	5.37508546e-03	6.77161656e-02
3.57938462e+02	5.30543977e-03	6.72643227e-02
3.59228969e+02	5.23554298e-03	6.68108507e-02
3.60524128e+02	5.16539419e-03	6.63644969e-02
3.61823958e+02	5.09499248e-03	6.59290825e-02
3.63128473e+02	5.02433694e-03	6.54920982e-02
3.64437692e+02	4.95342667e-03	6.50535385e-02
3.65751632e+02	4.88330291e-03	6.46133975e-02
3.67070308e+02	4.81787299e-03	6.41716697e-02
3.68393739e+02	4.75220717e-03	6.37283493e-02
3.69721941e+02	4.68630459e-03	6.32834305e-02
3.71054932e+02	4.62016442e-03	6.28369077e-02
3.72392729e+02	4.55733369e-03	6.24089072e-02
3.73735350e+02	4.49451489e-03	6.19807167e-02
3.75082811e+02	4.43146960e-03	6.15509824e-02
3.76435130e+02	4.36819701e-03	6.11196988e-02
3.77792324e+02	4.30725230e-03	6.06967183e-02
3.79154412e+02	4.24718497e-03	6.02764442e-02
3.80521411e+02	4.18690107e-03	5.98546548e-02
3.81893338e+02	4.12639983e-03	5.94313447e-02
3.83270212e+02	4.06732181e-03	5.90129014e-02
3.84652050e+02	4.00993788e-03	5.86003774e-02
3.86038870e+02	3.95234706e-03	5.81863661e-02
3.87430689e+02	3.89454861e-03	5.77708621e-02
3.88827527e+02	3.83768230e-03	5.73569572e-02
3.90229401e+02	3.78452725e-03	5.69521952e-02
3.91636330e+02	3.73118055e-03	5.65459738e-02
3.93048331e+02	3.67764151e-03	5.61382878e-02
3.94465422e+02	3.62390944e-03	5.57291319e-02
3.95887623e+02	3.56998366e-03	5.53384395e-02
3.97314952e+02	3.51586344e-03	5.49465659e-02
3.98747426e+02	3.46154811e-03	5.45532794e-02
4.00185066e+02	3.40703694e-03	5.41585749e-02
4.01627888e+02	3.35826069e-03	5.37624474e-02
4.03075912e+02	3.31127185e-03	5.33648917e-02
4.04529157e+02	3.26411360e-03	5.29659026e-02
4.05987642e+02	3.21678533e-03	5.25654751e-02
4.07451385e+02	3.16928642e-03	5.21739957e-02
4.08920405e+02	3.12161625e-03	5.17909253e-02
4.10394722e+02	3.07377422e-03	5.14064737e-02
4.11874354e+02	3.02575970e-03	5.10206360e-02
4.13359321e+02	2.97757207e-03	5.06370820e-02
4.14849642e+02	2.92921070e-03	5.02617299e-02
4.16345335e+02	2.88067498e-03	4.98850245e-02
4.17846422e+02	2.83196426e-03	4.95069609e-02
4.19352920e+02	2.78332434e-03	4.91280572e-02
4.20864850e+02	2.74037752e-03	4.87602407e-02
4.22382231e+02	2.69727586e-03	4.83910980e-02
4.23905083e+02	2.65401880e-03	4.80206244e-02
4.25433425e+02	2.61060578e-03	4.76488152e-02
4.26967278e+02	2.56928029e-03	4.72908948e-02
4.28506661e+02	2.52835628e-03	4.69354199e-02
4.30051593e+02	2.48728472e-03	4.65786634e-02
4.31602096e+02	2.44606508e-03	4.62206207e-02
4.33158189e+02	2.40623062e-03	4.58612871e-02
4.34719892e+02	2.36742996e-03	4.55006579e-02
4.36287226e+02	2.32848941e-03	4.51387285e-02
4.37860211e+02	2.28940846e-03	4.47754942e-02
4.39438867e+02	2.25104310e-03	4.44172226e-02
4.41023215e+02	2.21428857e-03	4.40704685e-02
4.42613274e+02	2.17740152e-03	4.37224643e-02
4.44209067e+02	2.14038147e-03	4.33732053e-02
4.45810613e+02	2.10345676e-03	4.30238205e-02
4.47417933e+02	2.06866058e-03	4.26843789e-02
4.49031048e+02	2.03373896e-03	4.23437135e-02
4.50649979e+02	1.99869142e-03	4.20018199e-02
4.52274747e+02	1.96351753e-03	4.16586936e-02
4.53905373e+02	1.93026214e-03	4.13247349e-02
4.55541878e+02	1.89723463e-03	4.09913414e-02
4.57184284e+02	1.86408805e-03	4.06567459e-02
4.58832610e+02	1.83082197e-03	4.03209440e-02
4.60486880e+02	1.79886038e-03	3.99913673e-02
4.62147114e+02	1.76766645e-03	3.96652110e-02
4.63813333e+02	1.73636005e-03	3.93378788e-02
4.65485560e+02	1.70494078e-03	3.90093665e-02
4.67163816e+02	1.67425049e-03	3.86842242e-02
4.68848123e+02	1.64482217e-03	3.83653319e-02
4.70538502e+02	1.61528776e-03	3.80452899e-02
4.72234976e+02	1.58564686e-03	3.77240940e-02
4.73937567e+02	1.55620438e-03	3.74042304e-02
4.75646295e+02	1.52847971e-03	3.70980917e-02
4.77361185e+02	1.50065507e-03	3.67908493e-02
4.79082257e+02	1.47273013e-03	3.64824992e-02
4.80809534e+02	1.44470450e-03	3.61730373e-02
4.82543039e+02	1.41926276e-03	3.58624597e-02
4.84282794e+02	1.39400663e-03	3.55507624e-02
4.86028821e+02	1.36865944e-03	3.52379413e-02
4.87781144e+02	1.34322086e-03	3.49239923e-02
4.89539784e+02	1.31769057e-03	3.46204459e-02
4.91304765e+02	1.29206823e-03	3.43215111e-02
4.93076109e+02	1.26635351e-03	3.40214985e-02
4.94853840e+02	1.24054608e-03	3.37204043e-02
4.96637980e+02	1.21588791e-03	3.34230514e-02
4.98428553e+02	1.19277513e-03	3.31309764e-02
5.00225581e+02	1.16957902e-03	3.28378484e-02
5.02029088e+02	1.14629928e-03	3.25436636e-02
5.03839098e+02	1.12328219e-03	3.22525958e-02
5.05655633e+02	1.10161378e-03	3.19777359e-02
5.07478718e+02	1.07986724e-03	3.17018849e-02
5.09308376e+02	1.05804229e-03	3.14250395e-02
5.11144630e+02	1.03613866e-03	3.11471959e-02
5.12987505e+02	1.01577142e-03	3.08683506e-02
5.14837023e+02	9.95401502e-04	3.05884999e-02
5.16693211e+02	9.74958146e-04	3.03076402e-02
5.18556090e+02	9.54441083e-04	3.00257680e-02
5.20425686e+02	9.35013711e-04	2.97428795e-02
5.22302023e+02	9.15967364e-04	2.94589710e-02
5.24185124e+02	8.96852348e-04	2.91740390e-02
5.26075015e+02	8.77668415e-04	2.88880797e-02
5.27971719e+02	8.59161384e-04	2.86115541e-02
5.29875262e+02	8.41384690e-04	2.83452116e-02
5.31785668e+02	8.23543903e-04	2.80779088e-02
5.33702962e+02	8.05638793e-04	2.78096423e-02
5.35627168e+02	7.88030014e-04	2.75429368e-02
5.37558311e+02	7.71461014e-04	2.72829990e-02
5.39496418e+02	7.54832276e-04	2.70221240e-02
5.41441512e+02	7.38143586e-04	2.67603085e-02
5.43393618e+02	7.21408222e-04	2.64976474e-02
5.45352763e+02	7.05989279e-04	2.62440841e-02
5.47318971e+02	6.90514744e-04	2.59896066e-02
5.49292269e+02	6.74984417e-04	2.57342117e-02
5.51272680e+02	6.59398097e-04	2.54778959e-02
5.53260232e+02	6.44770329e-04	2.52283501e-02
5.55254950e+02	6.30389012e-04	2.49801732e-02
5.57256859e+02	6.15955845e-04	2.47311015e-02
5.59265987e+02	6.01470641e-04	2.44811318e-02
5.61282357e+02	5.87601234e-04	2.42355128e-02
5.63305998e+02	5.74262214e-04	2.39935713e-02
5.65336935e+02	5.60875102e-04	2.37507575e-02
5.67375194e+02	5.47439724e-04	2.35070682e-02
5.69420801e+02	5.34308750e-04	2.32653767e-02
5.71473784e+02	5.21961495e-04	2.30295886e-02
5.73534169e+02	5.09569723e-04	2.27929503e-02
5.75601982e+02	4.97133274e-04	2.25554589e-02
5.77677251e+02	4.84720498e-04	2.23179674e-02
5.79760001e+02	4.73313795e-04	2.20927509e-02
5.81850261e+02	4.61865968e-04	2.18667224e-02
5.83948057e+02	4.50376866e-04	2.16398790e-02
5.86053416e+02	4.38846342e-04	2.14122177e-02
5.88166366e+02	4.28148168e-04	2.11837356e-02
5.90286934e+02	4.17598091e-04	2.09544298e-02
5.92415147e+02	4.07009976e-04	2.07242972e-02
5.94551034e+02	3.96383687e-04	2.04933349e-02
5.96694621e+02	3.86304966e-04	2.02697563e-02
5.98845936e+02	3.76602623e-04	2.00511595e-02
6.01005008e+02	3.66865299e-04	1.98317745e-02
6.03171865e+02	3.57092868e-04	1.96115986e-02
6.05346533e+02	3.47613302e-04	1.93937512e-02
6.07529042e+02	3.38709848e-04	1.91809263e-02
6.09719420e+02	3.29774293e-04	1.89673341e-02
6.11917695e+02	3.20806522e-04	1.87529717e-02
6.14123896e+02	3.11905914e-04	1.85388234e-02
6.16338051e+02	3.03755986e-04	1.83316667e-02
6.18560188e+02	2.95576674e-04	1.81237631e-02
6.20790338e+02	2.87367872e-04	1.79151099e-02
6.23028528e+02	2.79129475e-04	1.77057045e-02
6.25274787e+02	2.71586642e-04	1.75030635e-02
6.27529146e+02	2.64119621e-04	1.73007598e-02
6.29791632e+02	2.56625678e-04	1.70977268e-02
6.32062275e+02	2.49104717e-04	1.68939618e-02
6.34341105e+02	2.42052105e-04	1.66948093e-02
6.36628150e+02	2.35254809e-04	1.64979686e-02
6.38923442e+02	2.28433005e-04	1.63004183e-02
6.41227009e+02	2.21586607e-04	1.61021557e-02
6.43538881e+02	2.15006710e-04	1.59064944e-02
6.45859088e+02	2.08837647e-04	1.57150764e-02
6.48187661e+02	2.02646342e-04	1.55229683e-02
6.50524629e+02	1.96432715e-04	1.53301676e-02
6.52870022e+02	1.90307650e-04	1.51380049e-02
6.55223872e+02	1.84724891e-04	1.49519306e-02
6.57586208e+02	1.79122004e-04	1.47651854e-02
6.59957062e+02	1.73498917e-04	1.45777670e-02
6.62336463e+02	1.67855556e-04	1.43896728e-02
6.64724443e+02	1.62774930e-04	1.42082574e-02
6.67121032e+02	1.57721675e-04	1.40267644e-02
6.69526262e+02	1.52650200e-04	1.38446170e-02
6.71940164e+02	1.47560441e-04	1.36618130e-02
6.74362769e+02	1.42855758e-04	1.34837210e-02
6.76794109e+02	1.38315394e-04	1.33074005e-02
6.79234214e+02	1.33758661e-04	1.31304443e-02
6.81683117e+02	1.29185499e-04	1.29528501e-02
6.84140849e+02	1.24841117e-04	1.27780663e-02
6.86607442e+02	1.20777476e-04	1.26068226e-02
6.89082928e+02	1.16699183e-04	1.24349615e-02
6.91567339e+02	1.12606187e-04	1.22624808e-02
6.94060708e+02	1.08652859e-04	1.20917509e-02
6.96563066e+02	1.05246287e-04	1.19290250e-02
6.99074446e+02	1.01827433e-04	1.17657124e-02
7.01594881e+02	9.83962530e-05	1.16018110e-02
7.04124402e+02	9.49527021e-05	1.14373187e-02
7.06663044e+02	9.14967359e-05	1.12722333e-02
7.09210839e+02	8.80283096e-05	1.11065528e-02
7.11767819e+02	8.45473783e-05	1.09402749e-02
7.14334018e+02	8.10538969e-05	1.07733975e-02
7.16909469e+02	7.81765528e-05	1.06165294e-02
7.19494206e+02	7.55078900e-05	1.04627928e-02
7.22088262e+02	7.28296057e-05	1.03085019e-02
7.24691670e+02	7.01416651e-05	1.01536547e-02
7.27304464e+02	6.74440334e-05	9.99824917e-03
7.29926679e+02	6.47366758e-05	9.84228339e-03
7.32558348e+02	6.20195570e-05	9.68575529e-03
7.35199505e+02	5.92926420e-05	9.52866285e-03
7.37850185e+02	5.67051179e-05	9.37380380e-03
7.40510421e+02	5.45170745e-05	9.22605668e-03
7.43180248e+02	5.23211422e-05	9.07777687e-03
7.45859701e+02	5.01172928e-05	8.92896245e-03
7.48548815e+02	4.79152480e-05	8.77981510e-03
7.51247624e+02	4.60139952e-05	8.63657670e-03
7.53956163e+02	4.41058877e-05	8.49282187e-03
7.56674467e+02	4.21909007e-05	8.34854875e-03
7.59402572e+02	4.02690095e-05	8.20375547e-03
7.62140513e+02	3.85687822e-05	8.06358672e-03
7.64888325e+02	3.69219877e-05	7.92425361e-03
7.67646044e+02	3.52692558e-05	7.78441815e-03
7.70413706e+02	3.36105653e-05	7.64407853e-03
7.73191346e+02	3.21488147e-05	7.50679151e-03
7.75979001e+02	3.08438120e-05	7.37185081e-03
7.78776706e+02	2.95341041e-05	7.23642359e-03
7.81584499e+02	2.82196743e-05	7.10050811e-03
7.84402414e+02	2.69005055e-05	6.96609805e-03
7.87230489e+02	2.55765805e-05	6.83546331e-03
7.90068760e+02	2.42478823e-05	6.70435759e-03
