# W [GeV]    S_gg [GeV^-1]
1.000000e+01    1.687202e-03
1.015366e+01    1.651340e-03
1.030968e+01    1.619920e-03
1.046809e+01    1.584587e-03
1.079226e+01    1.521285e-03
1.095810e+01    1.489373e-03
1.112648e+01    1.458988e-03
1.129744e+01    1.428891e-03
1.147104e+01    1.399684e-03
1.164730e+01    1.369547e-03
1.182627e+01    1.340587e-03
1.200799e+01    1.312909e-03
1.219250e+01    1.285543e-03
1.237985e+01    1.259725e-03
1.257007e+01    1.233670e-03
1.276322e+01    1.207235e-03
1.295934e+01    1.183127e-03
1.356595e+01    1.108373e-03
1.377440e+01    1.086540e-03
1.398606e+01    1.063681e-03
1.420097e+01    1.041061e-03
1.441917e+01    1.019491e-03
1.464074e+01    9.978876e-04
1.486570e+01    9.770827e-04
1.509413e+01    9.558777e-04
1.532606e+01    9.363912e-04
1.556155e+01    9.165268e-04
1.580067e+01    8.972307e-04
1.604346e+01    8.780069e-04
1.628998e+01    8.594321e-04
1.679444e+01    8.233601e-04
1.705250e+01    8.055068e-04
1.758058e+01    7.713837e-04
1.785072e+01    7.554259e-04
1.812501e+01    7.389224e-04
1.840351e+01    7.233055e-04
1.868629e+01    7.082493e-04
1.897342e+01    6.928350e-04
1.926496e+01    6.781854e-04
1.956099e+01    6.633221e-04
2.016674e+01    6.352936e-04
2.047662e+01    6.214905e-04
2.079126e+01    6.080297e-04
2.111073e+01    5.953096e-04
2.143512e+01    5.825588e-04
2.176448e+01    5.694703e-04
2.209891e+01    5.573429e-04
2.278326e+01    5.331238e-04
2.313334e+01    5.214365e-04
2.348881e+01    5.104871e-04
2.384973e+01    4.990828e-04
2.421620e+01    4.886490e-04
2.458830e+01    4.776374e-04
2.534974e+01    4.568796e-04
2.573926e+01    4.469984e-04
2.613476e+01    4.373145e-04
2.653634e+01    4.273539e-04
2.694409e+01    4.181304e-04
2.777849e+01    3.999649e-04
2.820533e+01    3.910257e-04
2.863872e+01    3.824361e-04
2.907878e+01    3.739455e-04
2.952560e+01    3.658565e-04
2.997928e+01    3.573352e-04
3.043993e+01    3.496637e-04
3.090767e+01    3.417696e-04
3.186480e+01    3.267012e-04
3.235443e+01    3.193431e-04
3.285158e+01    3.122785e-04
3.335637e+01    3.053412e-04
3.491776e+01    2.851964e-04
3.545430e+01    2.786565e-04
3.599908e+01    2.725155e-04
3.655223e+01    2.663044e-04
3.711389e+01    2.601990e-04
3.768417e+01    2.543314e-04
3.826321e+01    2.486014e-04
3.885116e+01    2.428236e-04
4.005429e+01    2.320193e-04
4.066975e+01    2.267867e-04
4.129467e+01    2.215181e-04
4.192920e+01    2.164055e-04
4.257347e+01    2.113800e-04
4.322765e+01    2.065706e-04
4.456630e+01    1.972073e-04
4.525110e+01    1.926868e-04
4.594642e+01    1.882122e-04
4.665242e+01    1.837958e-04
4.736927e+01    1.795553e-04
4.809713e+01    1.753220e-04
4.883618e+01    1.711780e-04
4.958659e+01    1.672959e-04
5.034853e+01    1.634266e-04
5.112217e+01    1.596354e-04
5.190770e+01    1.558637e-04
5.270530e+01    1.521456e-04
5.351516e+01    1.486312e-04
5.433746e+01    1.451101e-04
5.517240e+01    1.416699e-04
5.602016e+01    1.383260e-04
5.688096e+01    1.350430e-04
5.775498e+01    1.319095e-04
5.864242e+01    1.287335e-04
5.954351e+01    1.256814e-04
6.045844e+01    1.227217e-04
6.138743e+01    1.196656e-04
6.233070e+01    1.168521e-04
6.328846e+01    1.141119e-04
6.426093e+01    1.113584e-04
6.524835e+01    1.086355e-04
6.625094e+01    1.060220e-04
6.726894e+01    1.034693e-04
6.830258e+01    1.009869e-04
7.041775e+01    9.616081e-05
7.149977e+01    9.381779e-05
7.259842e+01    9.157990e-05
7.371395e+01    8.929548e-05
7.599669e+01    8.493810e-05
7.716444e+01    8.291127e-05
7.835013e+01    8.084043e-05
7.955404e+01    7.887000e-05
8.077645e+01    7.689694e-05
8.201764e+01    7.501913e-05
8.455754e+01    7.137117e-05
8.585683e+01    6.954642e-05
8.717608e+01    6.780216e-05
8.851561e+01    6.610280e-05
8.987572e+01    6.447057e-05
9.125673e+01    6.287677e-05
9.265896e+01    6.130150e-05
9.408273e+01    5.971267e-05
9.552839e+01    5.821688e-05
9.699626e+01    5.673823e-05
9.848668e+01    5.531071e-05
1.015366e+02    5.252236e-05
1.030968e+02    5.117493e-05
1.046809e+02    4.986727e-05
1.079226e+02    4.732618e-05
1.095810e+02    4.611327e-05
1.112648e+02    4.492609e-05
1.147104e+02    4.264030e-05
1.164730e+02    4.150694e-05
1.182627e+02    4.045314e-05
1.200799e+02    3.934972e-05
1.237985e+02    3.733306e-05
1.257007e+02    3.636844e-05
1.295934e+02    3.446668e-05
1.315847e+02    3.354180e-05
1.336066e+02    3.266173e-05
1.356595e+02    3.176968e-05
1.377440e+02    3.093212e-05
1.398606e+02    3.009958e-05
1.441917e+02    2.850919e-05
1.464074e+02    2.773127e-05
1.486570e+02    2.696862e-05
1.509413e+02    2.625913e-05
1.532606e+02    2.553637e-05
1.556155e+02    2.482767e-05
1.580067e+02    2.415365e-05
1.628998e+02    2.284091e-05
1.654029e+02    2.221972e-05
1.679444e+02    2.159813e-05
1.705250e+02    2.099719e-05
1.731453e+02    2.040575e-05
1.812501e+02    1.874256e-05
1.897342e+02    1.719518e-05
1.926496e+02    1.670475e-05
1.956099e+02    1.623233e-05
1.986155e+02    1.576113e-05
2.016674e+02    1.530777e-05
2.047662e+02    1.486705e-05
2.111073e+02    1.402018e-05
2.143512e+02    1.360997e-05
2.176448e+02    1.321417e-05
2.209891e+02    1.282934e-05
2.243848e+02    1.244706e-05
2.278326e+02    1.208105e-05
2.313334e+02    1.172246e-05
2.348881e+02    1.137384e-05
2.384973e+02    1.103653e-05
2.421620e+02    1.070592e-05
2.458830e+02    1.038942e-05
2.534974e+02    9.770112e-06
2.573926e+02    9.475817e-06
2.613476e+02    9.185829e-06
2.653634e+02    8.905191e-06
2.694409e+02    8.630365e-06
2.735811e+02    8.366359e-06
2.777849e+02    8.104608e-06
2.820533e+02    7.857259e-06
2.863872e+02    7.609117e-06
2.907878e+02    7.373125e-06
2.952560e+02    7.140887e-06
3.043993e+02    6.696720e-06
3.090767e+02    6.483334e-06
3.138259e+02    6.278386e-06
3.186480e+02    6.075729e-06
3.235443e+02    5.880062e-06
3.285158e+02    5.691688e-06
3.335637e+02    5.507364e-06
3.386892e+02    5.326139e-06
3.438934e+02    5.152930e-06
3.491776e+02    4.984487e-06
3.599908e+02    4.661157e-06
3.655223e+02    4.507231e-06
3.711389e+02    4.354718e-06
3.768417e+02    4.209343e-06
3.885116e+02    3.927592e-06
3.944814e+02    3.794480e-06
4.005429e+02    3.665006e-06
4.066975e+02    3.538839e-06
4.129467e+02    3.415778e-06
4.192920e+02    3.298639e-06
4.257347e+02    3.184084e-06
4.322765e+02    3.070801e-06
4.389187e+02    2.963440e-06
4.456630e+02    2.858440e-06
4.525110e+02    2.756910e-06
4.594642e+02    2.658740e-06
4.665242e+02    2.562944e-06
4.736927e+02    2.469684e-06
4.809713e+02    2.380336e-06
4.883618e+02    2.293268e-06
4.958659e+02    2.209505e-06
5.034853e+02    2.128077e-06
5.112217e+02    2.049784e-06
5.190770e+02    1.972736e-06
5.351516e+02    1.826840e-06
5.433746e+02    1.757123e-06
5.517240e+02    1.690823e-06
5.602016e+02    1.625468e-06
5.688096e+02    1.562456e-06
5.775498e+02    1.502272e-06
5.864242e+02    1.444085e-06
5.954351e+02    1.386623e-06
6.328846e+02    1.178220e-06
6.426093e+02    1.130719e-06
6.524835e+02    1.084669e-06
6.625094e+02    1.040335e-06
6.726894e+02    9.970062e-07
6.830258e+02    9.555224e-07
6.935210e+02    9.154440e-07
7.041775e+02    8.771474e-07
7.149977e+02    8.399495e-07
7.259842e+02    8.039875e-07
7.371395e+02    7.692953e-07
7.484662e+02    7.363976e-07
7.599669e+02    7.038180e-07
7.716444e+02    6.728975e-07
7.835013e+02    6.432874e-07
8.077645e+02    5.869563e-07
8.201764e+02    5.603497e-07
8.327791e+02    5.347451e-07
8.455754e+02    5.101313e-07
8.585683e+02    4.867423e-07
8.717608e+02    4.641548e-07
8.851561e+02    4.421351e-07
8.987572e+02    4.211556e-07
9.125673e+02    4.011051e-07
9.265896e+02    3.816775e-07
9.408273e+02    3.631054e-07
9.552839e+02    3.452951e-07
9.699626e+02    3.282108e-07
9.848668e+02    3.119307e-07
1.000000e+03    2.962106e-07
