# W [GeV]    S_gg [GeV^-1]
1.000000e+01    2.231957e-03
1.015366e+01    2.187958e-03
1.030968e+01    2.144231e-03
1.079226e+01    2.020243e-03
1.095810e+01    1.975225e-03
1.112648e+01    1.939368e-03
1.129744e+01    1.897793e-03
1.147104e+01    1.861992e-03
1.164730e+01    1.824595e-03
1.182627e+01    1.787358e-03
1.200799e+01    1.751514e-03
1.219250e+01    1.716193e-03
1.237985e+01    1.681482e-03
1.257007e+01    1.646263e-03
1.276322e+01    1.613789e-03
1.295934e+01    1.582429e-03
1.336066e+01    1.518237e-03
1.356595e+01    1.487227e-03
1.377440e+01    1.457671e-03
1.420097e+01    1.399026e-03
1.441917e+01    1.370791e-03
1.464074e+01    1.342703e-03
1.486570e+01    1.314510e-03
1.509413e+01    1.287584e-03
1.556155e+01    1.236447e-03
1.580067e+01    1.210825e-03
1.604346e+01    1.186247e-03
1.628998e+01    1.160855e-03
1.654029e+01    1.137791e-03
1.705250e+01    1.091994e-03
1.731453e+01    1.069629e-03
1.785072e+01    1.025497e-03
1.812501e+01    1.004723e-03
1.840351e+01    9.841581e-04
1.868629e+01    9.637035e-04
1.897342e+01    9.436389e-04
1.926496e+01    9.241896e-04
1.956099e+01    9.050553e-04
1.986155e+01    8.864295e-04
2.016674e+01    8.683379e-04
2.047662e+01    8.507865e-04
2.079126e+01    8.323518e-04
2.111073e+01    8.160063e-04
2.143512e+01    7.985024e-04
2.176448e+01    7.817266e-04
2.209891e+01    7.659873e-04
2.243848e+01    7.493075e-04
2.278326e+01    7.333503e-04
2.313334e+01    7.185640e-04
2.348881e+01    7.034392e-04
2.384973e+01    6.884783e-04
2.421620e+01    6.742348e-04
2.458830e+01    6.599342e-04
2.496612e+01    6.462803e-04
2.534974e+01    6.325566e-04
2.573926e+01    6.194517e-04
2.613476e+01    6.061970e-04
2.653634e+01    5.933219e-04
2.735811e+01    5.685431e-04
2.820533e+01    5.448224e-04
2.863872e+01    5.335346e-04
2.907878e+01    5.220633e-04
2.952560e+01    5.109120e-04
2.997928e+01    5.001699e-04
3.090767e+01    4.788966e-04
3.138259e+01    4.684268e-04
3.186480e+01    4.584730e-04
3.235443e+01    4.488347e-04
3.285158e+01    4.390960e-04
3.335637e+01    4.293003e-04
3.386892e+01    4.205078e-04
3.438934e+01    4.113116e-04
3.491776e+01    4.028224e-04
3.545430e+01    3.936735e-04
3.599908e+01    3.850769e-04
3.655223e+01    3.769089e-04
3.711389e+01    3.688729e-04
3.768417e+01    3.609115e-04
3.826321e+01    3.529033e-04
3.885116e+01    3.453534e-04
3.944814e+01    3.379037e-04
4.005429e+01    3.304192e-04
4.066975e+01    3.229931e-04
4.129467e+01    3.162206e-04
4.192920e+01    3.089431e-04
4.322765e+01    2.957816e-04
4.525110e+01    2.767613e-04
4.594642e+01    2.705433e-04
4.665242e+01    2.645878e-04
4.736927e+01    2.586629e-04
4.958659e+01    2.418812e-04
5.034853e+01    2.363552e-04
5.112217e+01    2.312300e-04
5.270530e+01    2.209702e-04
5.351516e+01    2.159077e-04
5.433746e+01    2.110695e-04
5.517240e+01    2.064604e-04
5.688096e+01    1.970685e-04
5.775498e+01    1.928646e-04
5.864242e+01    1.883638e-04
6.045844e+01    1.799107e-04
6.138743e+01    1.758780e-04
6.233070e+01    1.717374e-04
6.328846e+01    1.679238e-04
6.426093e+01    1.640479e-04
6.524835e+01    1.603077e-04
6.625094e+01    1.565829e-04
6.726894e+01    1.529396e-04
6.830258e+01    1.494907e-04
6.935210e+01    1.460725e-04
7.041775e+01    1.426534e-04
7.259842e+01    1.361781e-04
7.371395e+01    1.329523e-04
7.484662e+01    1.298676e-04
7.599669e+01    1.267712e-04
7.716444e+01    1.238717e-04
7.835013e+01    1.210324e-04
7.955404e+01    1.180162e-04
8.077645e+01    1.152925e-04
8.201764e+01    1.125975e-04
8.455754e+01    1.073344e-04
8.585683e+01    1.048009e-04
8.717608e+01    1.023366e-04
8.851561e+01    9.987164e-05
8.987572e+01    9.747667e-05
9.125673e+01    9.514504e-05
9.408273e+01    9.066427e-05
9.552839e+01    8.847252e-05
9.699626e+01    8.632946e-05
9.848668e+01    8.423447e-05
1.000000e+02    8.221015e-05
1.015366e+02    8.017344e-05
1.030968e+02    7.824406e-05
1.046809e+02    7.635682e-05
1.062894e+02    7.444915e-05
1.079226e+02    7.267037e-05
1.095810e+02    7.086797e-05
1.112648e+02    6.915888e-05
1.129744e+02    6.744862e-05
1.147104e+02    6.581475e-05
1.182627e+02    6.249513e-05
1.200799e+02    6.098096e-05
1.219250e+02    5.945636e-05
1.237985e+02    5.797847e-05
1.257007e+02    5.653661e-05
1.295934e+02    5.372509e-05
1.315847e+02    5.237902e-05
1.336066e+02    5.102068e-05
1.356595e+02    4.975554e-05
1.377440e+02    4.850145e-05
1.398606e+02    4.724780e-05
1.420097e+02    4.603011e-05
1.441917e+02    4.486781e-05
1.486570e+02    4.262844e-05
1.509413e+02    4.150713e-05
1.532606e+02    4.042363e-05
1.556155e+02    3.937929e-05
1.580067e+02    3.836715e-05
1.604346e+02    3.736591e-05
1.628998e+02    3.639190e-05
1.679444e+02    3.450194e-05
1.705250e+02    3.361722e-05
1.731453e+02    3.273406e-05
1.758058e+02    3.187218e-05
1.785072e+02    3.102014e-05
1.812501e+02    3.017947e-05
1.840351e+02    2.938231e-05
1.868629e+02    2.860132e-05
1.956099e+02    2.636728e-05
1.986155e+02    2.565991e-05
2.016674e+02    2.495665e-05
2.047662e+02    2.428014e-05
2.079126e+02    2.362153e-05
2.111073e+02    2.297526e-05
2.143512e+02    2.234479e-05
2.176448e+02    2.173940e-05
2.243848e+02    2.056859e-05
2.313334e+02    1.943585e-05
2.348881e+02    1.889613e-05
2.384973e+02    1.837103e-05
2.421620e+02    1.787539e-05
2.458830e+02    1.737313e-05
2.496612e+02    1.688177e-05
2.534974e+02    1.641070e-05
2.573926e+02    1.593968e-05
2.613476e+02    1.549695e-05
2.653634e+02    1.505142e-05
2.694409e+02    1.461947e-05
2.735811e+02    1.420861e-05
2.777849e+02    1.379908e-05
2.863872e+02    1.301339e-05
2.907878e+02    1.263978e-05
2.952560e+02    1.227892e-05
2.997928e+02    1.192095e-05
3.043993e+02    1.157688e-05
3.090767e+02    1.123945e-05
3.138259e+02    1.090506e-05
3.186480e+02    1.059049e-05
3.235443e+02    1.027940e-05
3.285158e+02    9.978687e-06
3.335637e+02    9.680208e-06
3.386892e+02    9.392422e-06
3.438934e+02    9.115179e-06
3.545430e+02    8.575139e-06
3.599908e+02    8.319356e-06
3.655223e+02    8.066647e-06
3.711389e+02    7.821696e-06
3.768417e+02    7.583785e-06
3.826321e+02    7.354778e-06
3.885116e+02    7.128732e-06
3.944814e+02    6.908280e-06
4.005429e+02    6.696844e-06
4.066975e+02    6.491914e-06
4.129467e+02    6.293261e-06
4.192920e+02    6.095156e-06
4.257347e+02    5.906679e-06
4.322765e+02    5.718899e-06
4.389187e+02    5.541041e-06
4.456630e+02    5.367889e-06
4.525110e+02    5.198136e-06
4.594642e+02    5.029654e-06
4.665242e+02    4.872826e-06
4.736927e+02    4.715562e-06
4.809713e+02    4.566797e-06
4.883618e+02    4.417904e-06
4.958659e+02    4.274532e-06
5.034853e+02    4.138440e-06
5.112217e+02    4.004252e-06
5.190770e+02    3.873009e-06
5.270530e+02    3.746095e-06
5.351516e+02    3.622401e-06
5.433746e+02    3.501677e-06
5.602016e+02    3.274223e-06
5.775498e+02    3.058341e-06
5.864242e+02    2.955072e-06
5.954351e+02    2.855103e-06
6.045844e+02    2.759339e-06
6.138743e+02    2.663971e-06
6.233070e+02    2.573345e-06
6.328846e+02    2.485836e-06
6.426093e+02    2.399721e-06
6.524835e+02    2.316453e-06
6.625094e+02    2.236264e-06
6.726894e+02    2.156703e-06
6.830258e+02    2.081458e-06
6.935210e+02    2.009037e-06
7.041775e+02    1.937175e-06
7.149977e+02    1.868954e-06
7.259842e+02    1.802323e-06
7.371395e+02    1.736988e-06
7.484662e+02    1.674185e-06
7.599669e+02    1.614598e-06
7.716444e+02    1.555388e-06
7.835013e+02    1.498606e-06
7.955404e+02    1.442810e-06
8.077645e+02    1.389371e-06
8.201764e+02    1.339132e-06
8.327791e+02    1.288789e-06
8.455754e+02    1.240093e-06
8.585683e+02    1.193641e-06
8.717608e+02    1.148355e-06
8.851561e+02    1.104871e-06
8.987572e+02    1.062346e-06
9.265896e+02    9.823868e-07
9.552839e+02    9.073390e-07
9.699626e+02    8.715635e-07
9.848668e+02    8.376848e-07
1.000000e+03    8.041391e-07
