# W [GeV]    S_gg [GeV^-1]
1.015366e+01    1.863474e-03
1.062894e+01    1.749571e-03
1.079226e+01    1.715047e-03
1.112648e+01    1.645313e-03
1.129744e+01    1.611351e-03
1.147104e+01    1.580411e-03
1.164730e+01    1.544761e-03
1.182627e+01    1.514320e-03
1.200799e+01    1.482420e-03
1.219250e+01    1.451653e-03
1.237985e+01    1.422012e-03
1.257007e+01    1.393597e-03
1.276322e+01    1.364200e-03
1.295934e+01    1.335927e-03
1.315847e+01    1.307572e-03
1.336066e+01    1.280497e-03
1.356595e+01    1.254550e-03
1.377440e+01    1.229041e-03
1.398606e+01    1.202610e-03
1.420097e+01    1.177664e-03
1.441917e+01    1.154343e-03
1.486570e+01    1.105481e-03
1.509413e+01    1.082528e-03
1.532606e+01    1.060399e-03
1.556155e+01    1.037331e-03
1.604346e+01    9.939009e-04
1.628998e+01    9.724125e-04
1.705250e+01    9.123060e-04
1.731453e+01    8.931783e-04
1.758058e+01    8.744707e-04
1.785072e+01    8.557124e-04
1.812501e+01    8.371933e-04
1.840351e+01    8.193621e-04
1.868629e+01    8.017349e-04
1.897342e+01    7.849451e-04
1.926496e+01    7.688456e-04
1.956099e+01    7.515386e-04
1.986155e+01    7.356389e-04
2.016674e+01    7.198063e-04
2.047662e+01    7.044773e-04
2.111073e+01    6.742527e-04
2.143512e+01    6.596562e-04
2.176448e+01    6.454436e-04
2.278326e+01    6.040523e-04
2.313334e+01    5.905795e-04
2.384973e+01    5.656328e-04
2.421620e+01    5.530712e-04
2.496612e+01    5.290722e-04
2.534974e+01    5.175348e-04
2.573926e+01    5.061218e-04
2.613476e+01    4.946239e-04
2.653634e+01    4.834595e-04
2.694409e+01    4.730072e-04
2.735811e+01    4.627385e-04
2.777849e+01    4.521629e-04
2.820533e+01    4.420839e-04
2.863872e+01    4.324644e-04
2.907878e+01    4.226595e-04
2.952560e+01    4.132216e-04
2.997928e+01    4.041492e-04
3.043993e+01    3.949064e-04
3.138259e+01    3.772760e-04
3.235443e+01    3.604287e-04
3.285158e+01    3.521670e-04
3.335637e+01    3.441024e-04
3.386892e+01    3.365268e-04
3.438934e+01    3.287841e-04
3.491776e+01    3.212012e-04
3.545430e+01    3.139490e-04
3.599908e+01    3.065868e-04
3.655223e+01    2.995756e-04
3.711389e+01    2.926305e-04
3.826321e+01    2.793962e-04
3.885116e+01    2.730704e-04
3.944814e+01    2.664988e-04
4.066975e+01    2.543888e-04
4.129467e+01    2.484313e-04
4.257347e+01    2.369110e-04
4.322765e+01    2.312940e-04
4.456630e+01    2.206227e-04
4.525110e+01    2.154254e-04
4.594642e+01    2.102626e-04
4.736927e+01    2.004095e-04
4.809713e+01    1.957839e-04
4.883618e+01    1.910521e-04
4.958659e+01    1.864524e-04
5.112217e+01    1.777120e-04
5.190770e+01    1.733134e-04
5.270530e+01    1.692037e-04
5.351516e+01    1.652693e-04
5.433746e+01    1.612230e-04
5.517240e+01    1.572249e-04
5.602016e+01    1.534423e-04
5.688096e+01    1.497847e-04
5.864242e+01    1.425823e-04
5.954351e+01    1.391188e-04
6.045844e+01    1.356459e-04
6.138743e+01    1.323256e-04
6.233070e+01    1.290514e-04
6.328846e+01    1.259598e-04
6.524835e+01    1.197651e-04
6.625094e+01    1.168667e-04
6.726894e+01    1.139054e-04
6.935210e+01    1.083207e-04
7.041775e+01    1.056346e-04
7.149977e+01    1.030018e-04
7.259842e+01    1.003977e-04
7.371395e+01    9.789474e-05
7.484662e+01    9.538206e-05
7.716444e+01    9.067667e-05
7.835013e+01    8.833414e-05
7.955404e+01    8.613472e-05
8.077645e+01    8.390333e-05
8.201764e+01    8.182305e-05
8.327791e+01    7.972195e-05
8.585683e+01    7.571280e-05
8.717608e+01    7.377277e-05
8.851561e+01    7.187780e-05
8.987572e+01    7.001408e-05
9.125673e+01    6.822822e-05
9.265896e+01    6.642504e-05
9.408273e+01    6.469765e-05
9.552839e+01    6.304210e-05
9.699626e+01    6.139773e-05
9.848668e+01    5.978920e-05
1.000000e+02    5.825712e-05
1.015366e+02    5.676223e-05
1.030968e+02    5.522049e-05
1.046809e+02    5.377599e-05
1.062894e+02    5.234842e-05
1.079226e+02    5.094980e-05
1.095810e+02    4.960171e-05
1.112648e+02    4.830041e-05
1.129744e+02    4.703290e-05
1.147104e+02    4.576247e-05
1.164730e+02    4.450665e-05
1.182627e+02    4.335552e-05
1.219250e+02    4.103454e-05
1.237985e+02    3.994247e-05
1.257007e+02    3.887172e-05
1.276322e+02    3.781681e-05
1.295934e+02    3.678653e-05
1.315847e+02    3.578375e-05
1.336066e+02    3.480895e-05
1.356595e+02    3.385437e-05
1.377440e+02    3.293679e-05
1.398606e+02    3.204212e-05
1.420097e+02    3.116199e-05
1.441917e+02    3.029668e-05
1.464074e+02    2.945483e-05
1.486570e+02    2.864312e-05
1.509413e+02    2.784251e-05
1.532606e+02    2.707704e-05
1.556155e+02    2.631268e-05
1.580067e+02    2.557328e-05
1.604346e+02    2.484078e-05
1.628998e+02    2.418029e-05
1.654029e+02    2.347444e-05
1.679444e+02    2.282046e-05
1.705250e+02    2.217782e-05
1.731453e+02    2.154728e-05
1.758058e+02    2.093505e-05
1.812501e+02    1.976876e-05
1.840351e+02    1.919100e-05
1.897342e+02    1.810070e-05
1.926496e+02    1.757544e-05
1.986155e+02    1.657263e-05
2.016674e+02    1.608397e-05
2.047662e+02    1.561492e-05
2.079126e+02    1.516072e-05
2.111073e+02    1.471395e-05
2.176448e+02    1.385588e-05
2.209891e+02    1.344865e-05
2.243848e+02    1.304738e-05
2.313334e+02    1.229016e-05
2.348881e+02    1.191675e-05
2.384973e+02    1.155682e-05
2.421620e+02    1.120630e-05
2.458830e+02    1.086759e-05
2.496612e+02    1.054154e-05
2.534974e+02    1.022148e-05
2.573926e+02    9.911118e-06
2.613476e+02    9.608135e-06
2.694409e+02    9.025101e-06
2.735811e+02    8.747365e-06
2.820533e+02    8.208269e-06
2.863872e+02    7.954212e-06
2.907878e+02    7.706739e-06
2.952560e+02    7.461347e-06
3.043993e+02    6.999663e-06
3.090767e+02    6.778112e-06
3.138259e+02    6.562518e-06
3.186480e+02    6.352636e-06
3.235443e+02    6.151287e-06
3.285158e+02    5.952911e-06
3.335637e+02    5.759079e-06
3.386892e+02    5.572230e-06
3.438934e+02    5.393483e-06
3.491776e+02    5.220650e-06
3.599908e+02    4.881745e-06
3.655223e+02    4.720876e-06
3.711389e+02    4.563635e-06
3.768417e+02    4.411747e-06
3.826321e+02    4.264567e-06
3.885116e+02    4.123783e-06
3.944814e+02    3.984654e-06
4.005429e+02    3.849837e-06
4.066975e+02    3.720257e-06
4.129467e+02    3.593641e-06
4.192920e+02    3.471814e-06
4.257347e+02    3.354563e-06
4.322765e+02    3.238489e-06
4.389187e+02    3.126290e-06
4.456630e+02    3.019506e-06
4.525110e+02    2.913149e-06
4.594642e+02    2.810731e-06
4.665242e+02    2.712599e-06
4.736927e+02    2.617638e-06
4.809713e+02    2.524179e-06
4.883618e+02    2.435254e-06
4.958659e+02    2.349159e-06
5.034853e+02    2.262639e-06
5.112217e+02    2.182313e-06
5.270530e+02    2.026801e-06
5.351516e+02    1.953065e-06
5.433746e+02    1.881676e-06
5.517240e+02    1.812344e-06
5.602016e+02    1.745249e-06
5.688096e+02    1.678908e-06
5.775498e+02    1.617958e-06
5.864242e+02    1.556725e-06
5.954351e+02    1.497648e-06
6.138743e+02    1.386121e-06
6.233070e+02    1.333467e-06
6.426093e+02    1.232355e-06
6.524835e+02    1.184998e-06
6.625094e+02    1.138150e-06
6.726894e+02    1.093302e-06
6.935210e+02    1.008517e-06
7.041775e+02    9.680107e-07
7.149977e+02    9.292657e-07
7.259842e+02    8.920140e-07
7.371395e+02    8.558789e-07
7.484662e+02    8.204547e-07
7.599669e+02    7.873434e-07
7.716444e+02    7.542065e-07
7.835013e+02    7.233242e-07
7.955404e+02    6.928419e-07
8.077645e+02    6.639472e-07
8.201764e+02    6.357326e-07
8.327791e+02    6.086836e-07
8.455754e+02    5.826463e-07
8.585683e+02    5.574656e-07
8.717608e+02    5.336007e-07
8.851561e+02    5.101819e-07
9.125673e+02    4.660320e-07
9.265896e+02    4.455184e-07
9.408273e+02    4.254733e-07
9.552839e+02    4.062979e-07
9.699626e+02    3.879387e-07
1.000000e+03    3.530925e-07
