# W0 [GeV]	Sigma_LHeC [pb]	Sigma_muLHC [pb]
2.00000000e+02	4.60621850e-05	4.63340619e-04
2.00633844e+02	4.59848172e-05	4.63024545e-04
2.01269697e+02	4.59072042e-05	4.62707468e-04
2.01907565e+02	4.58263681e-05	4.62375327e-04
2.02547454e+02	4.57403302e-05	4.62018777e-04
2.03189372e+02	4.56540196e-05	4.61661096e-04
2.03833324e+02	4.55674354e-05	4.61302282e-04
2.04479316e+02	4.54805769e-05	4.60942331e-04
2.05127356e+02	4.53890020e-05	4.60559588e-04
2.05777450e+02	4.52935981e-05	4.60158378e-04
2.06429604e+02	4.51978918e-05	4.59755897e-04
2.07083825e+02	4.51018821e-05	4.59352141e-04
2.07740119e+02	4.50055682e-05	4.58947105e-04
2.08398493e+02	4.49030993e-05	4.58496365e-04
2.09058954e+02	4.47982225e-05	4.58028380e-04
2.09721508e+02	4.46930133e-05	4.57558911e-04
2.10386161e+02	4.45874707e-05	4.57087955e-04
2.11052921e+02	4.44815936e-05	4.56615506e-04
2.11721795e+02	4.43681842e-05	4.56141560e-04
2.12392788e+02	4.42537765e-05	4.55666111e-04
2.13065907e+02	4.41390062e-05	4.55189156e-04
2.13741160e+02	4.40238721e-05	4.54710690e-04
2.14418553e+02	4.39076212e-05	4.54224558e-04
2.15098092e+02	4.37841684e-05	4.53681022e-04
2.15779785e+02	4.36603244e-05	4.53135764e-04
2.16463639e+02	4.35360879e-05	4.52588778e-04
2.17149660e+02	4.34114576e-05	4.52040058e-04
2.17837855e+02	4.32844027e-05	4.51472556e-04
2.18528231e+02	4.31517231e-05	4.50859407e-04
2.19220795e+02	4.30186231e-05	4.50244315e-04
2.19915554e+02	4.28851012e-05	4.49627274e-04
2.20612515e+02	4.27511561e-05	4.49008277e-04
2.21311685e+02	4.26122710e-05	4.48387318e-04
2.22013070e+02	4.24676577e-05	4.47764391e-04
2.22716678e+02	4.23225860e-05	4.47139491e-04
2.23422516e+02	4.21770546e-05	4.46512609e-04
2.24130592e+02	4.20310619e-05	4.45883741e-04
2.24840911e+02	4.18846066e-05	4.45213758e-04
2.25553481e+02	4.17376871e-05	4.44519778e-04
2.26268310e+02	4.15903020e-05	4.43823599e-04
2.26985404e+02	4.14424498e-05	4.43125213e-04
2.27704771e+02	4.12941291e-05	4.42424614e-04
2.28426417e+02	4.11378111e-05	4.41690007e-04
2.29150351e+02	4.09793722e-05	4.40946208e-04
2.29876579e+02	4.08204312e-05	4.40200052e-04
2.30605108e+02	4.06609865e-05	4.39451530e-04
2.31335946e+02	4.05010185e-05	4.38700506e-04
2.32069101e+02	4.03353742e-05	4.37909714e-04
2.32804579e+02	4.01692048e-05	4.37116415e-04
2.33542388e+02	4.00025089e-05	4.36320603e-04
2.34282535e+02	3.98352847e-05	4.35522268e-04
2.35025028e+02	3.96666981e-05	4.34711880e-04
2.35769874e+02	3.94938846e-05	4.33856678e-04
2.36517081e+02	3.93205235e-05	4.32998765e-04
2.37266655e+02	3.91466129e-05	4.32138133e-04
2.38018606e+02	3.89721511e-05	4.31274774e-04
2.38772939e+02	3.87952491e-05	4.30408679e-04
2.39529663e+02	3.86144985e-05	4.29539839e-04
2.40288785e+02	3.84331751e-05	4.28668245e-04
2.41050313e+02	3.82512770e-05	4.27793889e-04
2.41814255e+02	3.80688024e-05	4.26916762e-04
2.42580617e+02	3.78857496e-05	4.26010158e-04
2.43349409e+02	3.77021166e-05	4.25078433e-04
2.44120637e+02	3.75179016e-05	4.24143755e-04
2.44894309e+02	3.73331028e-05	4.23206115e-04
2.45670433e+02	3.71477183e-05	4.22265504e-04
2.46449016e+02	3.69587428e-05	4.21300818e-04
2.47230067e+02	3.67680368e-05	4.20325128e-04
2.48013594e+02	3.65767264e-05	4.19346345e-04
2.48799604e+02	3.63848097e-05	4.18364461e-04
2.49588104e+02	3.61922848e-05	4.17379465e-04
2.50379104e+02	3.59977048e-05	4.16367290e-04
2.51172610e+02	3.58023607e-05	4.15349450e-04
2.51968632e+02	3.56063974e-05	4.14328384e-04
2.52767176e+02	3.54098131e-05	4.13304082e-04
2.53568251e+02	3.52125291e-05	4.12274426e-04
2.54371864e+02	3.50138271e-05	4.11219714e-04
2.55178025e+02	3.48144954e-05	4.10161659e-04
2.55986740e+02	3.46145320e-05	4.09100251e-04
2.56798018e+02	3.44139349e-05	4.08035479e-04
2.57611868e+02	3.42126674e-05	4.06961767e-04
2.58428296e+02	3.40106677e-05	4.05869513e-04
2.59247313e+02	3.38080279e-05	4.04773796e-04
2.60068924e+02	3.36047459e-05	4.03674607e-04
2.60893140e+02	3.34008196e-05	4.02571935e-04
2.61719968e+02	3.31968448e-05	4.01457749e-04
2.62549416e+02	3.29929555e-05	4.00330214e-04
2.63381493e+02	3.27884201e-05	3.99199105e-04
2.64216207e+02	3.25832364e-05	3.98064411e-04
2.65053566e+02	3.23774024e-05	3.96926122e-04
2.65893579e+02	3.21709162e-05	3.95774665e-04
2.66736255e+02	3.19637755e-05	3.94613953e-04
2.67581600e+02	3.17559783e-05	3.93449564e-04
2.68429625e+02	3.15475226e-05	3.92281483e-04
2.69280338e+02	3.13384062e-05	3.91109701e-04
2.70133747e+02	3.11305466e-05	3.89921327e-04
2.70989860e+02	3.09224745e-05	3.88726192e-04
2.71848686e+02	3.07137430e-05	3.87527270e-04
2.72710235e+02	3.05043500e-05	3.86324548e-04
2.73574514e+02	3.02942933e-05	3.85118014e-04
2.74441531e+02	3.00861387e-05	3.83907656e-04
2.75311297e+02	2.98773441e-05	3.82693463e-04
2.76183819e+02	2.96678877e-05	3.81475422e-04
2.77059106e+02	2.94577676e-05	3.80253520e-04
2.77937168e+02	2.92475393e-05	3.79025576e-04
2.78818012e+02	2.90393121e-05	3.77783365e-04
2.79701647e+02	2.88304250e-05	3.76537217e-04
2.80588083e+02	2.86208758e-05	3.75287120e-04
2.81477329e+02	2.84106625e-05	3.74033061e-04
2.82369392e+02	2.82011159e-05	3.72775028e-04
2.83264283e+02	2.79933417e-05	3.71513007e-04
2.84162010e+02	2.77849090e-05	3.70246987e-04
2.85062582e+02	2.75758157e-05	3.68976955e-04
2.85966008e+02	2.73660598e-05	3.67702898e-04
2.86872297e+02	2.71591864e-05	3.66422903e-04
2.87781459e+02	2.69547470e-05	3.65137198e-04
2.88693502e+02	2.67496598e-05	3.63847418e-04
2.89608435e+02	2.65439226e-05	3.62553550e-04
2.90526268e+02	2.63375333e-05	3.61255582e-04
2.91447009e+02	2.61304900e-05	3.59954594e-04
2.92370669e+02	2.59227904e-05	3.58649918e-04
2.93297256e+02	2.57144327e-05	3.57341107e-04
2.94226780e+02	2.55054146e-05	3.56028148e-04
2.95159249e+02	2.52957341e-05	3.54711028e-04
2.96094674e+02	2.50920644e-05	3.53394001e-04
2.97033063e+02	2.48885217e-05	3.52073294e-04
2.97974426e+02	2.46843339e-05	3.50748402e-04
2.98918773e+02	2.44794990e-05	3.49419310e-04
2.99866112e+02	2.42744454e-05	3.48086561e-04
3.00816454e+02	2.40738896e-05	3.46756223e-04
3.01769807e+02	2.38726983e-05	3.45421669e-04
3.02726182e+02	2.36708693e-05	3.44082885e-04
3.03685588e+02	2.34684007e-05	3.42739859e-04
3.04648035e+02	2.32668105e-05	3.41395039e-04
3.05613531e+02	2.30689571e-05	3.40053044e-04
3.06582088e+02	2.28704767e-05	3.38706797e-04
3.07553714e+02	2.26713673e-05	3.37356283e-04
3.08528419e+02	2.24716269e-05	3.36001489e-04
3.09506214e+02	2.22739780e-05	3.34647519e-04
3.10487107e+02	2.20791919e-05	3.33295812e-04
3.11471109e+02	2.18837884e-05	3.31939822e-04
3.12458230e+02	2.16877656e-05	3.30579534e-04
3.13448479e+02	2.14911216e-05	3.29214935e-04
3.14441866e+02	2.12978800e-05	3.27854665e-04
3.15438401e+02	2.11065002e-05	3.26495404e-04
3.16438095e+02	2.09145140e-05	3.25131835e-04
3.17440957e+02	2.07219193e-05	3.23763945e-04
3.18446997e+02	2.05287142e-05	3.22391719e-04
3.19456226e+02	2.03402505e-05	3.21035310e-04
3.20468653e+02	2.01525251e-05	3.19679633e-04
3.21484289e+02	1.99642049e-05	3.18319660e-04
3.22503143e+02	1.97752878e-05	3.16955376e-04
3.23525227e+02	1.95857719e-05	3.15586769e-04
3.24550549e+02	1.94023980e-05	3.14213824e-04
3.25579121e+02	1.92185711e-05	3.12836528e-04
3.26610953e+02	1.90341617e-05	3.11454868e-04
3.27646055e+02	1.88491678e-05	3.10068828e-04
3.28684438e+02	1.86647363e-05	3.08682999e-04
3.29726111e+02	1.84856638e-05	3.07316594e-04
3.30771086e+02	1.83060237e-05	3.05945858e-04
3.31819372e+02	1.81258143e-05	3.04570778e-04
3.32870981e+02	1.79450337e-05	3.03191340e-04
3.33925922e+02	1.77661546e-05	3.01818831e-04
3.34984207e+02	1.75914554e-05	3.00463651e-04
3.36045845e+02	1.74162025e-05	2.99104177e-04
3.37110849e+02	1.72403942e-05	2.97740394e-04
3.38179227e+02	1.70640287e-05	2.96372288e-04
3.39250992e+02	1.68909066e-05	2.94999848e-04
3.40326153e+02	1.67206983e-05	2.93623057e-04
3.41404721e+02	1.65499506e-05	2.92241903e-04
3.42486708e+02	1.63786618e-05	2.90856372e-04
3.43572124e+02	1.62068301e-05	2.89466450e-04
3.44660979e+02	1.60396452e-05	2.88097258e-04
3.45753286e+02	1.58741103e-05	2.86734280e-04
3.46849054e+02	1.57080507e-05	2.85366982e-04
3.47948295e+02	1.55414648e-05	2.83995351e-04
3.49051020e+02	1.53743510e-05	2.82619374e-04
3.50157239e+02	1.52132604e-05	2.81274236e-04
3.51266965e+02	1.50525086e-05	2.79929397e-04
3.52380207e+02	1.48912474e-05	2.78580297e-04
3.53496977e+02	1.47294751e-05	2.77226921e-04
3.54617287e+02	1.45679173e-05	2.75869256e-04
3.55741147e+02	1.44161194e-05	2.74507288e-04
3.56868569e+02	1.42638403e-05	2.73141003e-04
3.57999564e+02	1.41110787e-05	2.71770389e-04
3.59134144e+02	1.39578330e-05	2.70395431e-04
3.60272319e+02	1.38041015e-05	2.69026403e-04
3.61414101e+02	1.36498829e-05	2.67684439e-04
3.62559502e+02	1.34951755e-05	2.66338222e-04
3.63708533e+02	1.33399778e-05	2.64987739e-04
3.64861205e+02	1.31842883e-05	2.63632975e-04
3.66017531e+02	1.30328878e-05	2.62286098e-04
3.67177521e+02	1.28874122e-05	2.60951264e-04
3.68341187e+02	1.27414755e-05	2.59612199e-04
3.69508542e+02	1.25950763e-05	2.58268891e-04
3.70679595e+02	1.24482131e-05	2.56921325e-04
3.71854361e+02	1.23053357e-05	2.55596916e-04
3.73032849e+02	1.21648720e-05	2.54285974e-04
3.74215072e+02	1.20239632e-05	2.52970877e-04
3.75401042e+02	1.18826078e-05	2.51651612e-04
3.76590771e+02	1.17408044e-05	2.50328166e-04
3.77784270e+02	1.16042321e-05	2.49000526e-04
3.78981551e+02	1.14687440e-05	2.47668678e-04
3.80182627e+02	1.13328266e-05	2.46332610e-04
3.81387510e+02	1.11964783e-05	2.44992307e-04
3.82596211e+02	1.10596980e-05	2.43647756e-04
3.83808742e+02	1.09293961e-05	2.42344917e-04
3.85025117e+02	1.07988927e-05	2.41039356e-04
3.86245346e+02	1.06679758e-05	2.39729657e-04
3.87469442e+02	1.05366439e-05	2.38415807e-04
3.88697418e+02	1.04064663e-05	2.37102673e-04
3.89929286e+02	1.02847122e-05	2.35812826e-04
3.91165058e+02	1.01625722e-05	2.34518891e-04
3.92404746e+02	1.00400451e-05	2.33220855e-04
3.93648363e+02	9.91712969e-06	2.31918705e-04
3.94895921e+02	9.79382473e-06	2.30623302e-04
3.96147433e+02	9.67012900e-06	2.29345712e-04
3.97402912e+02	9.54604124e-06	2.28064073e-04
3.98662369e+02	9.42156022e-06	2.26778372e-04
3.99925818e+02	9.29668470e-06	2.25488597e-04
4.01193271e+02	9.17996715e-06	2.24211762e-04
4.02464741e+02	9.07102133e-06	2.22947087e-04
4.03740240e+02	8.96173024e-06	2.21678405e-04
4.05019782e+02	8.85209279e-06	2.20405702e-04
4.06303378e+02	8.74210787e-06	2.19128965e-04
4.07591043e+02	8.63177438e-06	2.17871442e-04
4.08882789e+02	8.52109122e-06	2.16620226e-04
4.10178629e+02	8.41005728e-06	2.15365044e-04
4.11478575e+02	8.29867145e-06	2.14105884e-04
4.12782641e+02	8.18693261e-06	2.12842733e-04
4.14090840e+02	8.07483965e-06	2.11605434e-04
4.15403185e+02	7.96239145e-06	2.10368508e-04
4.16719689e+02	7.84958686e-06	2.09127661e-04
4.18040366e+02	7.73642478e-06	2.07882883e-04
4.19365228e+02	7.62363055e-06	2.06636057e-04
4.20694288e+02	7.52293553e-06	2.05417821e-04
4.22027561e+02	7.42192139e-06	2.04195725e-04
4.23365059e+02	7.32058712e-06	2.02969756e-04
4.24706796e+02	7.21893169e-06	2.01739901e-04
4.26052786e+02	7.11840656e-06	2.00514261e-04
4.27403041e+02	7.02227141e-06	1.99311037e-04
4.28757575e+02	6.92583159e-06	1.98103999e-04
4.30116402e+02	6.82908613e-06	1.96893136e-04
4.31479536e+02	6.73203406e-06	1.95678436e-04
4.32846989e+02	6.63718824e-06	1.94481241e-04
4.34218777e+02	6.54556474e-06	1.93310179e-04
4.35594912e+02	6.45365088e-06	1.92135406e-04
4.36975408e+02	6.36144571e-06	1.90956910e-04
4.38360279e+02	6.26894833e-06	1.89774680e-04
4.39749539e+02	6.17965304e-06	1.88588702e-04
4.41143202e+02	6.09243141e-06	1.87398966e-04
4.42541282e+02	6.00493335e-06	1.86205459e-04
4.43943793e+02	5.91715799e-06	1.85008169e-04
4.45350749e+02	5.82910445e-06	1.83807086e-04
4.46762163e+02	5.74515829e-06	1.82643338e-04
4.48178051e+02	5.66219613e-06	1.81487626e-04
4.49598426e+02	5.57897104e-06	1.80328252e-04
4.51023302e+02	5.49548220e-06	1.79165203e-04
4.52452694e+02	5.41172876e-06	1.77998469e-04
4.53886616e+02	5.33294375e-06	1.76861724e-04
4.55325083e+02	5.25413160e-06	1.75722808e-04
4.56768108e+02	5.17506967e-06	1.74580283e-04
4.58215707e+02	5.09575718e-06	1.73434138e-04
4.59667893e+02	5.01693439e-06	1.72289207e-04
4.61124682e+02	4.94241842e-06	1.71170456e-04
4.62586088e+02	4.86766628e-06	1.70048159e-04
4.64052125e+02	4.79267724e-06	1.68922306e-04
4.65522808e+02	4.71745054e-06	1.67792884e-04
4.66998152e+02	4.64362592e-06	1.66671103e-04
4.68478172e+02	4.57304440e-06	1.65569546e-04
4.69962883e+02	4.50223919e-06	1.64464499e-04
4.71452299e+02	4.43120959e-06	1.63355949e-04
4.72946435e+02	4.35995488e-06	1.62243886e-04
4.74445306e+02	4.29095524e-06	1.61145785e-04
4.75948928e+02	4.22420471e-06	1.60061596e-04
4.77457315e+02	4.15724264e-06	1.58973971e-04
4.78970482e+02	4.09006835e-06	1.57882900e-04
4.80488445e+02	4.02268117e-06	1.56788370e-04
4.82011218e+02	3.95981276e-06	1.55713922e-04
4.83538818e+02	3.89894940e-06	1.54647039e-04
4.85071259e+02	3.83789315e-06	1.53576774e-04
4.86608557e+02	3.77664339e-06	1.52503117e-04
4.88150726e+02	3.71519952e-06	1.51426058e-04
4.89697783e+02	3.65356092e-06	1.50375163e-04
4.91249743e+02	3.59172698e-06	1.49325625e-04
4.92806622e+02	3.52969707e-06	1.48272760e-04
4.94368435e+02	3.46747057e-06	1.47216559e-04
4.95935197e+02	3.40534530e-06	1.46159247e-04
4.97506925e+02	3.34949256e-06	1.45147063e-04
4.99083634e+02	3.29346281e-06	1.44131672e-04
5.00665340e+02	3.23725549e-06	1.43113062e-04
5.02252058e+02	3.18087004e-06	1.42091224e-04
5.03843806e+02	3.12525205e-06	1.41066148e-04
5.05440598e+02	3.07272285e-06	1.40037823e-04
5.07042450e+02	3.02002716e-06	1.39006239e-04
5.08649379e+02	2.96716448e-06	1.37971385e-04
5.10261401e+02	2.91413426e-06	1.36933252e-04
5.11878532e+02	2.86256075e-06	1.35912611e-04
5.13500787e+02	2.81320676e-06	1.34919216e-04
5.15128184e+02	2.76369636e-06	1.33922672e-04
5.16760739e+02	2.71402904e-06	1.32922970e-04
5.18398468e+02	2.66420432e-06	1.31920099e-04
5.20041386e+02	2.61647978e-06	1.30943138e-04
5.21689512e+02	2.57019779e-06	1.29983611e-04
5.23342861e+02	2.52376912e-06	1.29021043e-04
5.25001450e+02	2.47719331e-06	1.28055424e-04
5.26665295e+02	2.43046989e-06	1.27086745e-04
5.28334413e+02	2.38643158e-06	1.26114996e-04
5.30008821e+02	2.34311363e-06	1.25140168e-04
5.31688536e+02	2.29965840e-06	1.24162250e-04
5.33373574e+02	2.25606544e-06	1.23181232e-04
5.35063952e+02	2.21233434e-06	1.22197106e-04
5.36759687e+02	2.17179675e-06	1.21257049e-04
5.38460797e+02	2.13131288e-06	1.20316593e-04
5.40167298e+02	2.09070071e-06	1.19373157e-04
5.41879207e+02	2.04995984e-06	1.18426731e-04
5.43596541e+02	2.00952106e-06	1.17481500e-04
5.45319318e+02	1.97186883e-06	1.16561629e-04
5.47047555e+02	1.93409727e-06	1.15638842e-04
5.48781269e+02	1.89620600e-06	1.14713131e-04
5.50520478e+02	1.85819465e-06	1.13784487e-04
5.52265199e+02	1.82104396e-06	1.12862851e-04
5.54015449e+02	1.78596432e-06	1.11960498e-04
5.55771246e+02	1.75077350e-06	1.11055285e-04
5.57532607e+02	1.71547115e-06	1.10147203e-04
5.59299550e+02	1.68005692e-06	1.09236243e-04
5.61072094e+02	1.64601058e-06	1.08337948e-04
5.62850255e+02	1.61339498e-06	1.07452973e-04
5.64634051e+02	1.58067601e-06	1.06565194e-04
5.66423501e+02	1.54785335e-06	1.05674601e-04
5.68218621e+02	1.51492667e-06	1.04781185e-04
5.70019431e+02	1.48382094e-06	1.03906092e-04
5.71825948e+02	1.45356007e-06	1.03038591e-04
5.73638191e+02	1.42320331e-06	1.02168341e-04
5.75456176e+02	1.39275033e-06	1.01295333e-04
5.77279924e+02	1.36220085e-06	1.00419559e-04
5.79109451e+02	1.33387006e-06	9.95674441e-05
5.80944776e+02	1.30585142e-06	9.87172179e-05
5.82785918e+02	1.27774398e-06	9.78642970e-05
5.84632895e+02	1.24954746e-06	9.70086731e-05
5.86485725e+02	1.22134697e-06	9.61513528e-05
5.88344428e+02	1.19555107e-06	9.53209686e-05
5.90209021e+02	1.16967341e-06	9.44879527e-05
5.92079523e+02	1.14371374e-06	9.36522968e-05
5.93955953e+02	1.11767180e-06	9.28139925e-05
5.95838330e+02	1.09206708e-06	9.19795394e-05
5.97726673e+02	1.06829383e-06	9.11663901e-05
5.99621000e+02	1.04444525e-06	9.03506637e-05
6.01521331e+02	1.02052108e-06	8.95323522e-05
6.03427685e+02	9.96521094e-07	8.87114472e-05
6.05340080e+02	9.73347800e-07	8.78997848e-05
6.07258536e+02	9.51487285e-07	8.71037374e-05
6.09183072e+02	9.29557491e-07	8.63051672e-05
6.11113707e+02	9.07558195e-07	8.55040661e-05
6.13050461e+02	8.85489179e-07	8.47004262e-05
6.14993353e+02	8.64589715e-07	8.39111059e-05
6.16942402e+02	8.44539413e-07	8.31317405e-05
6.18897628e+02	8.24425567e-07	8.23499051e-05
6.20859051e+02	8.04247976e-07	8.15655919e-05
6.22826690e+02	7.84006438e-07	8.07787930e-05
6.24800565e+02	7.65232135e-07	8.00113692e-05
6.26780696e+02	7.46892364e-07	7.92485682e-05
6.28767102e+02	7.28494471e-07	7.84833497e-05
6.30759803e+02	7.10038271e-07	7.77157061e-05
6.32758820e+02	6.91523579e-07	7.69456296e-05
6.34764172e+02	6.74730815e-07	7.61999440e-05
6.36775879e+02	6.58004365e-07	7.54536965e-05
6.38793962e+02	6.41224906e-07	7.47050839e-05
6.40818441e+02	6.24392269e-07	7.39540988e-05
6.42849335e+02	6.07715883e-07	7.32040463e-05
6.44886666e+02	5.92555370e-07	7.24764097e-05
6.46930454e+02	5.77346809e-07	7.17464670e-05
6.48980719e+02	5.62090050e-07	7.10142111e-05
6.51037482e+02	5.46784939e-07	7.02796344e-05
6.53100763e+02	5.31925727e-07	6.95510232e-05
6.55170583e+02	5.18181302e-07	6.88395932e-05
6.57246963e+02	5.04393319e-07	6.81259084e-05
6.59329923e+02	4.90561638e-07	6.74099619e-05
6.61419485e+02	4.76686121e-07	6.66917463e-05
6.63515669e+02	4.63506246e-07	6.59843709e-05
6.65618496e+02	4.51088235e-07	6.52890055e-05
6.67727987e+02	4.38630869e-07	6.45914362e-05
6.69844164e+02	4.26134024e-07	6.38916562e-05
6.71967048e+02	4.13597572e-07	6.31896584e-05
6.74096659e+02	4.01969371e-07	6.25032023e-05
6.76233020e+02	3.90792462e-07	6.18237192e-05
6.78376151e+02	3.79580130e-07	6.11420827e-05
6.80526075e+02	3.68332264e-07	6.04582858e-05
6.82682812e+02	3.57048752e-07	5.97723219e-05
6.84846384e+02	3.46849135e-07	5.91064257e-05
6.87016813e+02	3.36828798e-07	5.84426225e-05
6.89194120e+02	3.26776706e-07	5.77767156e-05
6.91378328e+02	3.16692755e-07	5.71086983e-05
6.93569458e+02	3.06615643e-07	5.64391349e-05
6.95767532e+02	2.98227495e-07	5.57927769e-05
6.97972573e+02	2.89812763e-07	5.51443706e-05
7.00184601e+02	2.81371363e-07	5.44939092e-05
7.02403641e+02	2.72903210e-07	5.38413864e-05
7.04629712e+02	2.64408220e-07	5.31919520e-05
7.06862839e+02	2.55886307e-07	5.25607496e-05
7.09103043e+02	2.47337387e-07	5.19275468e-05
7.11350347e+02	2.38761373e-07	5.12923372e-05
7.13604772e+02	2.30158180e-07	5.06551145e-05
7.15866343e+02	2.22327593e-07	5.00254930e-05
7.18135081e+02	2.15758902e-07	4.94093524e-05
7.20411009e+02	2.09169394e-07	4.87912592e-05
7.22694150e+02	2.02559002e-07	4.81712070e-05
7.24984527e+02	1.95927660e-07	4.75491898e-05
7.27282163e+02	1.89275302e-07	4.69391080e-05
7.29587080e+02	1.82601862e-07	4.63378374e-05
7.31899302e+02	1.75907271e-07	4.57346612e-05
7.34218852e+02	1.69191465e-07	4.51295734e-05
7.36545753e+02	1.62454374e-07	4.45225679e-05
7.38880029e+02	1.56719815e-07	4.39316754e-05
7.41221702e+02	1.51317467e-07	4.33450826e-05
7.43570797e+02	1.45897997e-07	4.27566307e-05
7.45927336e+02	1.40461352e-07	4.21663139e-05
7.48291344e+02	1.35007477e-07	4.15741262e-05
7.50662844e+02	1.30262994e-07	4.10020205e-05
7.53041860e+02	1.25561503e-07	4.04298551e-05
7.55428415e+02	1.20845112e-07	3.98558763e-05
7.57822534e+02	1.16113773e-07	3.92800785e-05
7.60224241e+02	1.11443319e-07	3.87049512e-05
7.62633559e+02	1.07392350e-07	3.81488603e-05
7.65050512e+02	1.03328543e-07	3.75910070e-05
7.67475126e+02	9.92518562e-08	3.70313857e-05
7.69907423e+02	9.51622500e-08	3.64699909e-05
7.72347429e+02	9.13183158e-08	3.59134424e-05
7.74795168e+02	8.81032294e-08	3.53715517e-05
7.77250665e+02	8.48779537e-08	3.48279437e-05
7.79713943e+02	8.16424564e-08	3.42826128e-05
7.82185028e+02	7.83967050e-08	3.37355537e-05
7.84663945e+02	7.51406672e-08	3.31972508e-05
7.87150718e+02	7.18743103e-08	3.26691558e-05
7.89645371e+02	6.85976016e-08	3.21393871e-05
7.92147931e+02	6.53105082e-08	3.16079394e-05
7.94658423e+02	6.20129974e-08	3.10748075e-05
7.97176870e+02	5.92324216e-08	3.05609281e-05
7.99703299e+02	5.67281694e-08	3.00567428e-05
8.02237735e+02	5.42159806e-08	2.95509595e-05
8.04780203e+02	5.16958302e-08	2.90435733e-05
8.07330728e+02	4.91676929e-08	2.85345791e-05
8.09889337e+02	4.71477201e-08	2.80239718e-05
