# W [GeV]    S_gg [GeV^-1]
1.000000e+01    1.906793e-03
1.030968e+01    1.829554e-03
1.046809e+01    1.793704e-03
1.062894e+01    1.755259e-03
1.095810e+01    1.684466e-03
1.112648e+01    1.651053e-03
1.129744e+01    1.618261e-03
1.164730e+01    1.550769e-03
1.182627e+01    1.519907e-03
1.200799e+01    1.489210e-03
1.219250e+01    1.458533e-03
1.237985e+01    1.428304e-03
1.257007e+01    1.400005e-03
1.276322e+01    1.370056e-03
1.295934e+01    1.342528e-03
1.315847e+01    1.314909e-03
1.356595e+01    1.260988e-03
1.377440e+01    1.236232e-03
1.398606e+01    1.211060e-03
1.420097e+01    1.184938e-03
1.441917e+01    1.160043e-03
1.464074e+01    1.136190e-03
1.486570e+01    1.112649e-03
1.509413e+01    1.090262e-03
1.580067e+01    1.022017e-03
1.604346e+01    1.001930e-03
1.628998e+01    9.808603e-04
1.654029e+01    9.610036e-04
1.679444e+01    9.406667e-04
1.705250e+01    9.204697e-04
1.758058e+01    8.819922e-04
1.812501e+01    8.463436e-04
1.840351e+01    8.281985e-04
1.868629e+01    8.113271e-04
1.897342e+01    7.935605e-04
1.926496e+01    7.774708e-04
1.986155e+01    7.449588e-04
2.016674e+01    7.290565e-04
2.047662e+01    7.135367e-04
2.079126e+01    6.982208e-04
2.111073e+01    6.838635e-04
2.176448e+01    6.546255e-04
2.209891e+01    6.404830e-04
2.243848e+01    6.275267e-04
2.278326e+01    6.137856e-04
2.313334e+01    6.006917e-04
2.348881e+01    5.879115e-04
2.421620e+01    5.629020e-04
2.458830e+01    5.507683e-04
2.573926e+01    5.163724e-04
2.613476e+01    5.053953e-04
2.653634e+01    4.941241e-04
2.735811e+01    4.728567e-04
2.777849e+01    4.630246e-04
2.820533e+01    4.524896e-04
2.863872e+01    4.432002e-04
2.952560e+01    4.240438e-04
2.997928e+01    4.147506e-04
3.043993e+01    4.054454e-04
3.090767e+01    3.969145e-04
3.138259e+01    3.880762e-04
3.186480e+01    3.796497e-04
3.235443e+01    3.712386e-04
3.285158e+01    3.631492e-04
3.335637e+01    3.554369e-04
3.386892e+01    3.473972e-04
3.438934e+01    3.399298e-04
3.491776e+01    3.322914e-04
3.545430e+01    3.249460e-04
3.655223e+01    3.106630e-04
3.711389e+01    3.039234e-04
3.768417e+01    2.971521e-04
3.826321e+01    2.905304e-04
3.885116e+01    2.841061e-04
3.944814e+01    2.777073e-04
4.005429e+01    2.715345e-04
4.066975e+01    2.654301e-04
4.129467e+01    2.597577e-04
4.322765e+01    2.424591e-04
4.389187e+01    2.369923e-04
4.456630e+01    2.317838e-04
4.525110e+01    2.265253e-04
4.594642e+01    2.213745e-04
4.665242e+01    2.163867e-04
4.736927e+01    2.113911e-04
4.809713e+01    2.067179e-04
4.883618e+01    2.019196e-04
4.958659e+01    1.974445e-04
5.034853e+01    1.928739e-04
5.112217e+01    1.885343e-04
5.190770e+01    1.841613e-04
5.270530e+01    1.800315e-04
5.351516e+01    1.757730e-04
5.433746e+01    1.718449e-04
5.602016e+01    1.640838e-04
5.688096e+01    1.603264e-04
5.775498e+01    1.564393e-04
5.864242e+01    1.528664e-04
5.954351e+01    1.495066e-04
6.138743e+01    1.424765e-04
6.233070e+01    1.392417e-04
6.328846e+01    1.359602e-04
6.426093e+01    1.327932e-04
6.524835e+01    1.295949e-04
6.625094e+01    1.266606e-04
6.726894e+01    1.236817e-04
6.830258e+01    1.206840e-04
6.935210e+01    1.179311e-04
7.041775e+01    1.151201e-04
7.259842e+01    1.097632e-04
7.371395e+01    1.071442e-04
7.484662e+01    1.046847e-04
7.599669e+01    1.020996e-04
7.716444e+01    9.970293e-05
7.835013e+01    9.727262e-05
7.955404e+01    9.499866e-05
8.077645e+01    9.265940e-05
8.201764e+01    9.050537e-05
8.327791e+01    8.836870e-05
8.455754e+01    8.619214e-05
8.585683e+01    8.408165e-05
8.851561e+01    8.008962e-05
8.987572e+01    7.812925e-05
9.125673e+01    7.628487e-05
9.265896e+01    7.438794e-05
9.408273e+01    7.256568e-05
9.552839e+01    7.075729e-05
9.699626e+01    6.902296e-05
9.848668e+01    6.735462e-05
1.000000e+02    6.569836e-05
1.015366e+02    6.405909e-05
1.030968e+02    6.249624e-05
1.046809e+02    6.095080e-05
1.062894e+02    5.942518e-05
1.079226e+02    5.794065e-05
1.112648e+02    5.507166e-05
1.129744e+02    5.372376e-05
1.164730e+02    5.104180e-05
1.182627e+02    4.975465e-05
1.200799e+02    4.853448e-05
1.257007e+02    4.491454e-05
1.295934e+02    4.263248e-05
1.315847e+02    4.154543e-05
1.356595e+02    3.944853e-05
1.377440e+02    3.842176e-05
1.398606e+02    3.743984e-05
1.420097e+02    3.648563e-05
1.441917e+02    3.551461e-05
1.464074e+02    3.460776e-05
1.486570e+02    3.370108e-05
1.509413e+02    3.280443e-05
1.532606e+02    3.194845e-05
1.556155e+02    3.111549e-05
1.580067e+02    3.029184e-05
1.604346e+02    2.950312e-05
1.628998e+02    2.870680e-05
1.654029e+02    2.794618e-05
1.679444e+02    2.719141e-05
1.705250e+02    2.646476e-05
1.731453e+02    2.577163e-05
1.785072e+02    2.439829e-05
1.812501e+02    2.373376e-05
1.840351e+02    2.309271e-05
1.868629e+02    2.245739e-05
1.897342e+02    2.184828e-05
1.926496e+02    2.125746e-05
1.956099e+02    2.067185e-05
1.986155e+02    2.010676e-05
2.016674e+02    1.955428e-05
2.047662e+02    1.900455e-05
2.079126e+02    1.848107e-05
2.143512e+02    1.746425e-05
2.176448e+02    1.696983e-05
2.243848e+02    1.603264e-05
2.278326e+02    1.557768e-05
2.313334e+02    1.513437e-05
2.348881e+02    1.470918e-05
2.384973e+02    1.428722e-05
2.421620e+02    1.387982e-05
2.458830e+02    1.348177e-05
2.496612e+02    1.309174e-05
2.534974e+02    1.270777e-05
2.573926e+02    1.234099e-05
2.613476e+02    1.198868e-05
2.653634e+02    1.163219e-05
2.694409e+02    1.129341e-05
2.735811e+02    1.096443e-05
2.777849e+02    1.063350e-05
2.820533e+02    1.032051e-05
2.863872e+02    1.001479e-05
2.907878e+02    9.716734e-06
2.952560e+02    9.424792e-06
2.997928e+02    9.141334e-06
3.090767e+02    8.596256e-06
3.138259e+02    8.334909e-06
3.186480e+02    8.078967e-06
3.235443e+02    7.835972e-06
3.285158e+02    7.590236e-06
3.335637e+02    7.355778e-06
3.386892e+02    7.127510e-06
3.438934e+02    6.904571e-06
3.491776e+02    6.688233e-06
3.545430e+02    6.481456e-06
3.599908e+02    6.278481e-06
3.711389e+02    5.885614e-06
3.768417e+02    5.696280e-06
3.826321e+02    5.512526e-06
3.885116e+02    5.336693e-06
3.944814e+02    5.164774e-06
4.066975e+02    4.833271e-06
4.129467e+02    4.677542e-06
4.322765e+02    4.226869e-06
4.389187e+02    4.087125e-06
4.456630e+02    3.950413e-06
4.525110e+02    3.816401e-06
4.594642e+02    3.688118e-06
4.665242e+02    3.561580e-06
4.736927e+02    3.441836e-06
4.809713e+02    3.324113e-06
4.883618e+02    3.209793e-06
5.034853e+02    2.991892e-06
5.112217e+02    2.886910e-06
5.270530e+02    2.686444e-06
5.351516e+02    2.591558e-06
5.433746e+02    2.499088e-06
5.517240e+02    2.410158e-06
5.602016e+02    2.323485e-06
5.688096e+02    2.240428e-06
5.775498e+02    2.157886e-06
5.864242e+02    2.079642e-06
5.954351e+02    2.003873e-06
6.045844e+02    1.928104e-06
6.138743e+02    1.858203e-06
6.233070e+02    1.788038e-06
6.328846e+02    1.721123e-06
6.426093e+02    1.656222e-06
6.524835e+02    1.592978e-06
6.625094e+02    1.532457e-06
6.726894e+02    1.474209e-06
6.830258e+02    1.417476e-06
6.935210e+02    1.361831e-06
7.149977e+02    1.257568e-06
7.259842e+02    1.208112e-06
7.484662e+02    1.113560e-06
7.716444e+02    1.026003e-06
7.955404e+02    9.436388e-07
8.077645e+02    9.055464e-07
8.201764e+02    8.674015e-07
8.327791e+02    8.314382e-07
8.455754e+02    7.965144e-07
8.585683e+02    7.630842e-07
8.717608e+02    7.307892e-07
8.987572e+02    6.692243e-07
9.125673e+02    6.403027e-07
9.265896e+02    6.123945e-07
9.408273e+02    5.855179e-07
9.552839e+02    5.596308e-07
9.699626e+02    5.347272e-07
9.848668e+02    5.106685e-07
1.000000e+03    4.876914e-07
