# W [GeV]    S_gg [GeV^-1]
1.000000e+01    1.378682e-03
1.046809e+01    1.282849e-03
1.079226e+01    1.222208e-03
1.095810e+01    1.192288e-03
1.112648e+01    1.164881e-03
1.129744e+01    1.136207e-03
1.164730e+01    1.081553e-03
1.200799e+01    1.030164e-03
1.237985e+01    9.807300e-04
1.257007e+01    9.572370e-04
1.276322e+01    9.340527e-04
1.295934e+01    9.111096e-04
1.315847e+01    8.892547e-04
1.356595e+01    8.461209e-04
1.377440e+01    8.250891e-04
1.420097e+01    7.850731e-04
1.441917e+01    7.656091e-04
1.464074e+01    7.469085e-04
1.486570e+01    7.288718e-04
1.509413e+01    7.105946e-04
1.532606e+01    6.925501e-04
1.580067e+01    6.587923e-04
1.604346e+01    6.424635e-04
1.628998e+01    6.264818e-04
1.654029e+01    6.103375e-04
1.679444e+01    5.955631e-04
1.705250e+01    5.802549e-04
1.758058e+01    5.518838e-04
1.785072e+01    5.378128e-04
1.812501e+01    5.241127e-04
1.840351e+01    5.108210e-04
1.868629e+01    4.979697e-04
1.897342e+01    4.852065e-04
1.926496e+01    4.729122e-04
1.956099e+01    4.610120e-04
2.016674e+01    4.376295e-04
2.047662e+01    4.264282e-04
2.079126e+01    4.154808e-04
2.111073e+01    4.046556e-04
2.143512e+01    3.944020e-04
2.176448e+01    3.841375e-04
2.209891e+01    3.743573e-04
2.243848e+01    3.644410e-04
2.278326e+01    3.550879e-04
2.313334e+01    3.459126e-04
2.348881e+01    3.368680e-04
2.384973e+01    3.280447e-04
2.421620e+01    3.193779e-04
2.458830e+01    3.110075e-04
2.534974e+01    2.949143e-04
2.573926e+01    2.872442e-04
2.613476e+01    2.796097e-04
2.653634e+01    2.720964e-04
2.735811e+01    2.578333e-04
2.777849e+01    2.508940e-04
2.863872e+01    2.377119e-04
2.907878e+01    2.312629e-04
2.952560e+01    2.251767e-04
2.997928e+01    2.190603e-04
3.043993e+01    2.131669e-04
3.090767e+01    2.074585e-04
3.138259e+01    2.016384e-04
3.235443e+01    1.908808e-04
3.285158e+01    1.857026e-04
3.335637e+01    1.805916e-04
3.386892e+01    1.756905e-04
3.491776e+01    1.660696e-04
3.599908e+01    1.571252e-04
3.655223e+01    1.527427e-04
3.711389e+01    1.484748e-04
3.826321e+01    1.403315e-04
3.885116e+01    1.363387e-04
3.944814e+01    1.325291e-04
4.066975e+01    1.252005e-04
4.129467e+01    1.216415e-04
4.192920e+01    1.181625e-04
4.322765e+01    1.115807e-04
4.389187e+01    1.083687e-04
4.456630e+01    1.052333e-04
4.525110e+01    1.022629e-04
4.594642e+01    9.929238e-05
4.665242e+01    9.637028e-05
4.809713e+01    9.090083e-05
4.883618e+01    8.828282e-05
5.034853e+01    8.320914e-05
5.112217e+01    8.067760e-05
5.190770e+01    7.833576e-05
5.270530e+01    7.603779e-05
5.433746e+01    7.158990e-05
5.517240e+01    6.948754e-05
5.602016e+01    6.738378e-05
5.775498e+01    6.341029e-05
5.864242e+01    6.149298e-05
5.954351e+01    5.963542e-05
6.045844e+01    5.784510e-05
6.138743e+01    5.607790e-05
6.233070e+01    5.436741e-05
6.328846e+01    5.269140e-05
6.426093e+01    5.107448e-05
6.524835e+01    4.950574e-05
6.625094e+01    4.797769e-05
6.830258e+01    4.504736e-05
6.935210e+01    4.364470e-05
7.041775e+01    4.226678e-05
7.149977e+01    4.093171e-05
7.259842e+01    3.963518e-05
7.484662e+01    3.716784e-05
7.599669e+01    3.599725e-05
7.835013e+01    3.371016e-05
7.955404e+01    3.262771e-05
8.201764e+01    3.054869e-05
8.455754e+01    2.860038e-05
8.717608e+01    2.674977e-05
8.851561e+01    2.586075e-05
8.987572e+01    2.500225e-05
9.125673e+01    2.416934e-05
9.265896e+01    2.336679e-05
9.408273e+01    2.258100e-05
9.552839e+01    2.181932e-05
9.848668e+01    2.036700e-05
1.000000e+02    1.967792e-05
1.015366e+02    1.899077e-05
1.030968e+02    1.834013e-05
1.046809e+02    1.770451e-05
1.062894e+02    1.709820e-05
1.095810e+02    1.592524e-05
1.112648e+02    1.536232e-05
1.129744e+02    1.482086e-05
1.147104e+02    1.429580e-05
1.164730e+02    1.378597e-05
1.182627e+02    1.329496e-05
1.219250e+02    1.235615e-05
1.237985e+02    1.190431e-05
1.257007e+02    1.147228e-05
1.276322e+02    1.105413e-05
1.295934e+02    1.064437e-05
1.315847e+02    1.024886e-05
1.336066e+02    9.870361e-06
1.356595e+02    9.504834e-06
1.377440e+02    9.146624e-06
1.398606e+02    8.799675e-06
1.420097e+02    8.466934e-06
1.441917e+02    8.145500e-06
1.464074e+02    7.832440e-06
1.486570e+02    7.531393e-06
1.509413e+02    7.240272e-06
1.532606e+02    6.956120e-06
1.556155e+02    6.686637e-06
1.604346e+02    6.168260e-06
1.628998e+02    5.922104e-06
1.654029e+02    5.685830e-06
1.679444e+02    5.458444e-06
1.705250e+02    5.238357e-06
1.731453e+02    5.023188e-06
1.758058e+02    4.816704e-06
1.785072e+02    4.619039e-06
1.812501e+02    4.429591e-06
1.840351e+02    4.244174e-06
1.868629e+02    4.067581e-06
1.897342e+02    3.894062e-06
1.986155e+02    3.416167e-06
2.016674e+02    3.269779e-06
2.047662e+02    3.126880e-06
2.079126e+02    2.988477e-06
2.176448e+02    2.607904e-06
2.209891e+02    2.491675e-06
2.243848e+02    2.377844e-06
2.278326e+02    2.270123e-06
2.348881e+02    2.064704e-06
2.384973e+02    1.969033e-06
2.458830e+02    1.786550e-06
2.496612e+02    1.701978e-06
2.534974e+02    1.619768e-06
2.573926e+02    1.541450e-06
2.613476e+02    1.466049e-06
2.653634e+02    1.393754e-06
2.694409e+02    1.324649e-06
2.735811e+02    1.258793e-06
2.777849e+02    1.195477e-06
2.820533e+02    1.134371e-06
2.863872e+02    1.076499e-06
2.907878e+02    1.020703e-06
2.952560e+02    9.673892e-07
2.997928e+02    9.167742e-07
3.043993e+02    8.679349e-07
3.090767e+02    8.217008e-07
3.138259e+02    7.775313e-07
3.186480e+02    7.350644e-07
3.235443e+02    6.946923e-07
3.285158e+02    6.559276e-07
3.335637e+02    6.193714e-07
3.386892e+02    5.842738e-07
3.438934e+02    5.509088e-07
3.491776e+02    5.192743e-07
3.545430e+02    4.889057e-07
3.599908e+02    4.603223e-07
3.655223e+02    4.329422e-07
3.711389e+02    4.068730e-07
3.768417e+02    3.821637e-07
3.826321e+02    3.586817e-07
3.885116e+02    3.366688e-07
3.944814e+02    3.153812e-07
4.005429e+02    2.954136e-07
4.066975e+02    2.765526e-07
4.129467e+02    2.584885e-07
4.192920e+02    2.415761e-07
4.257347e+02    2.254924e-07
4.322765e+02    2.104373e-07
4.389187e+02    1.960838e-07
4.456630e+02    1.825219e-07
4.525110e+02    1.698610e-07
4.594642e+02    1.578122e-07
4.665242e+02    1.464911e-07
4.736927e+02    1.358170e-07
4.809713e+02    1.257948e-07
4.883618e+02    1.164203e-07
4.958659e+02    1.075126e-07
5.034853e+02    9.924559e-08
5.112217e+02    9.150604e-08
5.190770e+02    8.422628e-08
5.270530e+02    7.739358e-08
5.351516e+02    7.106154e-08
5.433746e+02    6.511353e-08
5.517240e+02    5.956638e-08
5.602016e+02    5.438373e-08
5.688096e+02    4.958458e-08
5.775498e+02    4.511633e-08
5.864242e+02    4.096127e-08
5.954351e+02    3.712636e-08
6.045844e+02    3.357645e-08
6.138743e+02    3.026205e-08
6.328846e+02    2.443924e-08
6.426093e+02    2.185491e-08
6.524835e+02    1.949461e-08
6.625094e+02    1.733152e-08
6.726894e+02    1.534809e-08
6.830258e+02    1.354978e-08
6.935210e+02    1.191099e-08
7.041775e+02    1.042908e-08
7.259842e+02    7.876522e-09
7.371395e+02    6.793467e-09
7.484662e+02    5.825679e-09
7.599669e+02    4.963374e-09
7.716444e+02    4.200598e-09
7.835013e+02    3.530525e-09
7.955404e+02    2.944549e-09
8.077645e+02    2.433850e-09
8.201764e+02    1.994212e-09
8.327791e+02    1.616033e-09
8.455754e+02    1.296689e-09
8.585683e+02    1.027850e-09
8.851561e+02    6.194352e-10
8.987572e+02    4.700562e-10
9.125673e+02    3.499174e-10
9.552839e+02    1.271406e-10
9.848668e+02    5.624930e-11
1.000000e+03    3.536569e-11
